-4.995 	500 	8.81148e-12 	1.5e+07
-4.985 	500 	8.13367e-12 	1.5e+07
-4.975 	500 	1.35561e-12 	1.5e+07
-4.965 	500 	2.03342e-12 	1.5e+07
-4.955 	500 	6.10026e-12 	1.5e+07
-4.945 	500 	5.42245e-12 	1.5e+07
-4.935 	500 	2.86003e-24 	1.5e+07
-4.925 	500 	2.86092e-24 	1.5e+07
-4.915 	500 	5.42245e-12 	1.5e+07
-4.905 	500 	6.10026e-12 	1.5e+07
-4.895 	500 	2.03339e-11 	1.5e+07
-4.885 	500 	1.49115e-11 	1.5e+07
-4.875 	500 	6.77806e-13 	1.5e+07
-4.865 	500 	6.19431e-24 	1.5e+07
-4.855 	500 	1.11221e-71 	1.5e+07
-4.845 	500 	5.24334e-24 	1.5e+07
-4.835 	500 	2.03342e-12 	1.5e+07
-4.825 	500 	2.71122e-12 	1.5e+07
-4.815 	500 	3.43764e-23 	1.5e+07
-4.805 	500 	1.22004e-11 	1.5e+07
-4.795 	500 	9.48909e-12 	1.5e+07
-4.785 	500 	5.42245e-12 	1.5e+07
-4.775 	500 	6.10026e-12 	1.5e+07
-4.765 	500 	8.81148e-12 	1.5e+07
-4.755 	500 	1.35561e-12 	1.5e+07
-4.745 	500 	5.72006e-24 	1.5e+07
-4.735 	500 	1.44225e-70 	1.5e+07
-4.725 	500 	8.13367e-12 	1.5e+07
-4.715 	500 	5.01228e-34 	1.5e+07
-4.705 	500 	6.77804e-12 	1.5e+07
-4.695 	500 	6.19812e-24 	1.5e+07
-4.685 	500 	3.76002e-11 	1.5e+07
-4.675 	500 	3.42113e-11 	1.5e+07
-4.665 	500 	4.06684e-12 	1.5e+07
-4.655 	500 	3.38903e-12 	1.5e+07
-4.645 	500 	6.19635e-24 	1.5e+07
-4.635 	500 	6.77806e-12 	1.5e+07
-4.625 	500 	8.81148e-12 	1.5e+07
-4.615 	500 	2.71122e-18 	1.5e+07
-4.605 	500 	3.52459e-17 	1.5e+07
-4.595 	500 	4.55662e-35 	1.5e+07
-4.585 	500 	8.81148e-12 	1.5e+07
-4.575 	500 	6.77806e-12 	1.5e+07
-4.565 	500 	1.90669e-24 	1.5e+07
-4.555 	500 	3.81182e-24 	1.5e+07
-4.545 	500 	1.83005e-11 	1.5e+07
-4.535 	500 	1.28781e-11 	1.5e+07
-4.525 	500 	2.16898e-17 	1.5e+07
-4.515 	500 	8.81148e-12 	1.5e+07
-4.505 	500 	2.03342e-12 	1.5e+07
-4.495 	500 	5.25066e-24 	1.5e+07
-4.485 	500 	7.96041e-111 	1.5e+07
-4.475 	500 	1.33972e-79 	1.5e+07
-4.465 	500 	5.7201e-24 	1.5e+07
-4.455 	500 	1.35561e-12 	1.5e+07
-4.445 	500 	2.03342e-12 	1.5e+07
-4.435 	500 	1.82266e-34 	1.5e+07
-4.425 	500 	5.42245e-12 	1.5e+07
-4.415 	500 	4.74464e-12 	1.5e+07
-4.405 	500 	3.33561e-24 	1.5e+07
-4.395 	500 	2.38333e-24 	1.5e+07
-4.385 	500 	6.10026e-12 	1.5e+07
-4.375 	500 	6.77806e-12 	1.5e+07
-4.365 	500 	1.35561e-12 	1.5e+07
-4.355 	500 	0 	1.5e+07
-4.345 	500 	0 	1.5e+07
-4.335 	500 	6.77806e-13 	1.5e+07
-4.325 	500 	1.35561e-12 	1.5e+07
-4.315 	500 	2.23673e-11 	1.5e+07
-4.305 	500 	2.10117e-11 	1.5e+07
-4.295 	500 	3.38903e-12 	1.5e+07
-4.285 	500 	4.74464e-12 	1.5e+07
-4.275 	500 	1.83005e-11 	1.5e+07
-4.265 	500 	1.08447e-11 	1.5e+07
-4.255 	500 	1.42338e-11 	1.5e+07
-4.245 	500 	1.28781e-11 	1.5e+07
-4.235 	500 	8.81148e-12 	1.5e+07
-4.225 	500 	6.77836e-13 	1.5e+07
-4.215 	500 	9.0868e-27 	1.5e+07
-4.205 	500 	6.77806e-13 	1.5e+07
-4.195 	500 	8.81148e-12 	1.5e+07
-4.185 	500 	0 	1.5e+07
-4.175 	500 	6.10026e-12 	1.5e+07
-4.165 	500 	3.38903e-12 	1.5e+07
-4.155 	500 	0 	1.5e+07
-4.145 	500 	4.74464e-12 	1.5e+07
-4.135 	500 	1.96561e-11 	1.5e+07
-4.125 	500 	2.10117e-11 	1.5e+07
-4.115 	500 	4.76805e-24 	1.5e+07
-4.105 	500 	9.53102e-25 	1.5e+07
-4.095 	500 	8.13367e-12 	1.5e+07
-4.085 	500 	8.81148e-12 	1.5e+07
-4.075 	500 	6.77806e-13 	1.5e+07
-4.065 	500 	0 	1.5e+07
-4.055 	500 	1.90692e-23 	1.5e+07
-4.045 	500 	1.15225e-11 	1.5e+07
-4.035 	500 	1.55894e-11 	1.5e+07
-4.025 	500 	6.19933e-24 	1.5e+07
-4.015 	500 	4.74464e-12 	1.5e+07
-4.005 	500 	5.42245e-12 	1.5e+07
-3.995 	500 	1.82266e-34 	1.5e+07
-3.985 	500 	6.77798e-12 	1.5e+07
-3.975 	500 	7.45577e-12 	1.5e+07
-3.965 	500 	6.77806e-13 	1.5e+07
-3.955 	500 	1.95654e-27 	1.5e+07
-3.945 	500 	8.81148e-12 	1.5e+07
-3.935 	500 	7.45587e-12 	1.5e+07
-3.925 	500 	1.55892e-11 	1.5e+07
-3.915 	500 	1.15225e-11 	1.5e+07
-3.905 	500 	3.38903e-12 	1.5e+07
-3.895 	500 	8.13369e-12 	1.5e+07
-3.885 	500 	4.74464e-12 	1.5e+07
-3.875 	500 	3.38903e-12 	1.5e+07
-3.865 	500 	2.71122e-12 	1.5e+07
-3.855 	500 	1.4296e-24 	1.5e+07
-3.845 	500 	7.45587e-12 	1.5e+07
-3.835 	500 	8.13367e-12 	1.5e+07
-3.825 	500 	5.58613e-23 	1.5e+07
-3.815 	500 	2.03349e-12 	1.5e+07
-3.805 	500 	1.0167e-11 	1.5e+07
-3.795 	500 	2.03342e-12 	1.5e+07
-3.785 	500 	2.71122e-12 	1.5e+07
-3.775 	500 	4.8941e-111 	1.5e+07
-3.765 	500 	3.33586e-24 	1.5e+07
-3.755 	500 	4.74464e-12 	1.5e+07
-3.745 	500 	5.42245e-12 	1.5e+07
-3.735 	500 	6.10027e-12 	1.5e+07
-3.725 	500 	8.81145e-12 	1.5e+07
-3.715 	500 	1.35561e-12 	1.5e+07
-3.705 	500 	1.00191e-23 	1.5e+07
-3.695 	500 	2.64341e-11 	1.5e+07
-3.685 	500 	2.44007e-11 	1.5e+07
-3.675 	500 	8.59469e-24 	1.5e+07
-3.665 	500 	0 	1.5e+07
-3.655 	500 	2.71122e-12 	1.5e+07
-3.645 	500 	1.42338e-11 	1.5e+07
-3.635 	500 	1.83006e-11 	1.5e+07
-3.625 	500 	8.81144e-12 	1.5e+07
-3.615 	500 	6.19972e-24 	1.5e+07
-3.605 	500 	6.10026e-12 	1.5e+07
-3.595 	500 	6.77806e-12 	1.5e+07
-3.585 	500 	1.22282e-70 	1.5e+07
-3.575 	500 	4.76718e-25 	1.5e+07
-3.565 	500 	8.81148e-12 	1.5e+07
-3.555 	500 	8.13364e-12 	1.5e+07
-3.545 	500 	2.71141e-12 	1.5e+07
-3.535 	500 	1.08449e-11 	1.5e+07
-3.525 	500 	1.0506e-11 	1.5e+07
-3.515 	500 	3.38903e-12 	1.5e+07
-3.505 	500 	4.06684e-12 	1.5e+07
-3.495 	500 	4.06684e-12 	1.5e+07
-3.485 	500 	3.38903e-12 	1.5e+07
-3.475 	500 	2.71121e-12 	1.5e+07
-3.465 	500 	4.06678e-12 	1.5e+07
-3.455 	500 	1.38045e-11 	1.5e+07
-3.445 	500 	1.40254e-11 	1.5e+07
-3.435 	500 	5.21816e-12 	1.5e+07
-3.425 	500 	8.81147e-12 	1.5e+07
-3.415 	500 	7.45587e-12 	1.5e+07
-3.405 	500 	1.43104e-24 	1.5e+07
-3.395 	500 	6.10026e-12 	1.5e+07
-3.385 	500 	5.42245e-12 	1.5e+07
-3.375 	500 	1.28782e-11 	1.5e+07
-3.365 	500 	1.83007e-11 	1.5e+07
-3.355 	500 	5.42245e-12 	1.5e+07
-3.345 	500 	2.71122e-12 	1.5e+07
-3.335 	500 	2.03342e-12 	1.5e+07
-3.325 	500 	5.2466e-24 	1.5e+07
-3.315 	500 	4.76528e-25 	1.5e+07
-3.305 	500 	8.81148e-12 	1.5e+07
-3.295 	500 	5.08362e-12 	1.5e+07
-3.285 	500 	8.81146e-12 	1.5e+07
-3.275 	500 	8.81141e-12 	1.5e+07
-3.265 	500 	1.91893e-24 	1.5e+07
-3.255 	500 	8.81148e-12 	1.5e+07
-3.245 	500 	4.74464e-12 	1.5e+07
-3.235 	500 	3.34024e-24 	1.5e+07
-3.225 	500 	3.38902e-12 	1.5e+07
-3.215 	500 	2.71121e-12 	1.5e+07
-3.205 	500 	6.77803e-12 	1.5e+07
-3.195 	500 	7.45583e-12 	1.5e+07
-3.185 	500 	6.77806e-13 	1.5e+07
-3.175 	500 	1.3217e-11 	1.5e+07
-3.165 	500 	8.47248e-12 	1.5e+07
-3.155 	500 	7.45577e-12 	1.5e+07
-3.145 	500 	1.35561e-11 	1.5e+07
-3.135 	500 	6.10026e-12 	1.5e+07
-3.125 	500 	3.38903e-12 	1.5e+07
-3.115 	500 	1.35561e-11 	1.5e+07
-3.105 	500 	2.03355e-12 	1.5e+07
-3.095 	500 	5.08346e-12 	1.5e+07
-3.085 	500 	4.06677e-12 	1.5e+07
-3.075 	500 	7.45589e-12 	1.5e+07
-3.065 	500 	7.45587e-12 	1.5e+07
-3.055 	500 	1.11106e-71 	1.5e+07
-3.045 	500 	6.20206e-24 	1.5e+07
-3.035 	500 	6.77806e-13 	1.5e+07
-3.025 	500 	1.76229e-11 	1.5e+07
-3.015 	500 	8.81143e-12 	1.5e+07
-3.005 	500 	1.22005e-11 	1.5e+07
-2.995 	500 	1.45812e-39 	1.5e+07
-2.985 	500 	1.08448e-11 	1.5e+07
-2.975 	500 	2.37226e-12 	1.5e+07
-2.965 	500 	8.81141e-12 	1.5e+07
-2.955 	500 	1.22003e-11 	1.5e+07
-2.945 	500 	6.77798e-12 	1.5e+07
-2.935 	500 	5.92363e-34 	1.5e+07
-2.925 	500 	4.76713e-25 	1.5e+07
-2.915 	500 	8.81144e-12 	1.5e+07
-2.905 	500 	3.25347e-17 	1.5e+07
-2.895 	500 	5.7614e-12 	1.5e+07
-2.885 	500 	1.76226e-11 	1.5e+07
-2.875 	500 	1.83005e-11 	1.5e+07
-2.865 	500 	1.28781e-11 	1.5e+07
-2.855 	500 	1.08448e-11 	1.5e+07
-2.845 	500 	3.33799e-24 	1.5e+07
-2.835 	500 	3.38899e-12 	1.5e+07
-2.825 	500 	5.42246e-12 	1.5e+07
-2.815 	500 	1.79617e-11 	1.5e+07
-2.805 	500 	1.6267e-11 	1.5e+07
-2.795 	500 	5.72514e-24 	1.5e+07
-2.785 	500 	5.28534e-37 	1.5e+07
-2.775 	500 	8.13367e-12 	1.5e+07
-2.765 	500 	7.45587e-12 	1.5e+07
-2.755 	500 	8.81148e-12 	1.5e+07
-2.745 	500 	4.28829e-24 	1.5e+07
-2.735 	500 	3.38903e-12 	1.5e+07
-2.725 	500 	8.81148e-12 	1.5e+07
-2.715 	500 	8.47257e-12 	1.5e+07
-2.705 	500 	2.38507e-24 	1.5e+07
-2.695 	500 	6.10026e-12 	1.5e+07
-2.685 	500 	6.77806e-12 	1.5e+07
-2.675 	500 	1.35561e-12 	1.5e+07
-2.665 	500 	5.08354e-12 	1.5e+07
-2.655 	500 	8.81148e-12 	1.5e+07
-2.645 	500 	4.76818e-25 	1.5e+07
-2.635 	500 	0 	1.5e+07
-2.625 	500 	4.10095e-34 	1.5e+07
-2.615 	500 	2.71136e-12 	1.5e+07
-2.605 	500 	1.55893e-11 	1.5e+07
-2.595 	500 	8.13369e-12 	1.5e+07
-2.585 	500 	1.76228e-11 	1.5e+07
-2.575 	500 	7.7946e-12 	1.5e+07
-2.565 	500 	6.10026e-12 	1.5e+07
-2.555 	500 	2.03342e-12 	1.5e+07
-2.545 	500 	1.35561e-12 	1.5e+07
-2.535 	500 	6.77806e-13 	1.5e+07
-2.525 	500 	1.3217e-11 	1.5e+07
-2.515 	500 	8.47248e-12 	1.5e+07
-2.505 	500 	1.35561e-12 	1.5e+07
-2.495 	500 	2.03342e-12 	1.5e+07
-2.485 	500 	8.20191e-34 	1.5e+07
-2.475 	500 	0 	1.5e+07
-2.465 	500 	1.27586e-39 	1.5e+07
-2.455 	500 	4.06684e-12 	1.5e+07
-2.445 	500 	6.77808e-12 	1.5e+07
-2.435 	500 	1.05058e-11 	1.5e+07
-2.425 	500 	1.55893e-11 	1.5e+07
-2.415 	500 	1.35561e-12 	1.5e+07
-2.405 	500 	6.77806e-13 	1.5e+07
-2.395 	500 	6.20368e-24 	1.5e+07
-2.385 	500 	4.55664e-35 	1.5e+07
-2.375 	500 	9.11328e-35 	1.5e+07
-2.365 	500 	0 	1.5e+07
-2.355 	500 	1.01193e-70 	1.5e+07
-2.345 	500 	5.42245e-12 	1.5e+07
-2.335 	500 	4.74464e-12 	1.5e+07
-2.325 	500 	4.06684e-12 	1.5e+07
-2.315 	500 	3.38903e-12 	1.5e+07
-2.305 	500 	4.29486e-24 	1.5e+07
-2.295 	500 	1.43006e-24 	1.5e+07
-2.285 	500 	7.45587e-12 	1.5e+07
-2.275 	500 	8.13367e-12 	1.5e+07
-2.265 	500 	8.81148e-12 	1.5e+07
-2.255 	500 	9.15037e-12 	1.5e+07
-2.245 	500 	2.03338e-12 	1.5e+07
-2.235 	500 	2.03342e-12 	1.5e+07
-2.225 	500 	2.71122e-12 	1.5e+07
-2.215 	500 	1.04802e-33 	1.5e+07
-2.205 	500 	0 	1.5e+07
-2.195 	500 	3.18965e-34 	1.5e+07
-2.185 	500 	5.42245e-12 	1.5e+07
-2.175 	500 	1.22005e-11 	1.5e+07
-2.165 	500 	6.77806e-12 	1.5e+07
-2.155 	500 	9.54012e-25 	1.5e+07
-2.145 	500 	8.13367e-12 	1.5e+07
-2.135 	500 	-7.33691e-28 	1.5e+07
-2.125 	500 	9.15037e-12 	1.5e+07
-2.115 	500 	1.83004e-11 	1.5e+07
-2.105 	500 	1.11837e-11 	1.5e+07
-2.095 	500 	6.10026e-12 	1.5e+07
-2.085 	500 	1.52506e-11 	1.5e+07
-2.075 	500 	4.74464e-12 	1.5e+07
-2.065 	500 	3.33773e-24 	1.5e+07
-2.055 	500 	3.38903e-12 	1.5e+07
-2.045 	500 	2.71122e-12 	1.5e+07
-2.035 	500 	4.76537e-24 	1.5e+07
-2.025 	500 	1.35561e-12 	1.5e+07
-2.015 	500 	6.77806e-13 	1.5e+07
-2.005 	500 	8.81144e-12 	1.5e+07
-1.995 	500 	2.71122e-18 	1.5e+07
-1.985 	500 	4.65717e-11 	1.5e+07
-1.975 	500 	3.64239e-11 	1.5e+07
-1.965 	500 	1.22005e-11 	1.5e+07
-1.955 	500 	1.96562e-11 	1.5e+07
-1.945 	500 	3.52459e-17 	1.5e+07
-1.935 	500 	3.52459e-17 	1.5e+07
-1.925 	500 	3.66011e-11 	1.5e+07
-1.915 	500 	1.22005e-11 	1.5e+07
-1.905 	500 	1.69447e-11 	1.5e+07
-1.895 	500 	8.81141e-12 	1.5e+07
-1.885 	500 	8.4725e-12 	1.5e+07
-1.875 	500 	4.40563e-12 	1.5e+07
-1.865 	500 	1.43056e-22 	1.5e+07
-1.855 	500 	2.91451e-11 	1.5e+07
-1.845 	500 	8.81127e-12 	1.5e+07
-1.835 	500 	2.23671e-11 	1.5e+07
-1.825 	500 	2.4539e-11 	1.5e+07
-1.815 	500 	2.44004e-11 	1.5e+07
-1.805 	500 	4.0668e-12 	1.5e+07
-1.795 	500 	2.47718e-11 	1.5e+07
-1.785 	500 	2.65953e-11 	1.5e+07
-1.775 	500 	1.3556e-11 	1.5e+07
-1.765 	500 	5.42248e-18 	1.5e+07
-1.755 	500 	4.33492e-11 	1.5e+07
-1.745 	500 	5.50386e-11 	1.5e+07
-1.735 	500 	1.62672e-11 	1.5e+07
-1.725 	500 	1.53284e-11 	1.5e+07
-1.715 	500 	4.10325e-11 	1.5e+07
-1.705 	500 	3.67711e-11 	1.5e+07
-1.695 	500 	1.32386e-11 	1.5e+07
-1.685 	500 	3.18562e-11 	1.5e+07
-1.675 	500 	8.81127e-12 	1.5e+07
-1.665 	500 	2.21749e-11 	1.5e+07
-1.655 	500 	8.20851e-12 	1.5e+07
-1.645 	500 	6.10022e-12 	1.5e+07
-1.635 	500 	2.7112e-12 	1.5e+07
-1.625 	500 	8.13364e-12 	1.5e+07
-1.615 	500 	3.52459e-17 	1.5e+07
-1.605 	500 	3.52459e-17 	1.5e+07
-1.595 	500 	2.71127e-12 	1.5e+07
-1.585 	500 	2.0334e-12 	1.5e+07
-1.575 	500 	2.7112e-12 	1.5e+07
-1.565 	500 	1.76227e-11 	1.5e+07
-1.555 	500 	1.13871e-16 	1.5e+07
-1.545 	500 	8.1336e-12 	1.5e+07
-1.535 	500 	3.52459e-17 	1.5e+07
-1.525 	500 	8.20191e-34 	1.5e+07
-1.515 	500 	0 	1.5e+07
-1.505 	500 	1.83006e-11 	1.5e+07
-1.495 	500 	1.42338e-11 	1.5e+07
-1.485 	500 	1.12843e-24 	1.5e+07
-1.475 	500 	8.13361e-12 	1.5e+07
-1.465 	500 	1.86394e-11 	1.5e+07
-1.455 	500 	1.45727e-11 	1.5e+07
-1.445 	500 	5.42243e-12 	1.5e+07
-1.435 	500 	6.77806e-12 	1.5e+07
-1.425 	500 	8.1336e-12 	1.5e+07
-1.415 	500 	2.03337e-12 	1.5e+07
-1.405 	500 	4.40571e-12 	1.5e+07
-1.395 	500 	1.45727e-11 	1.5e+07
-1.385 	500 	3.79564e-11 	1.5e+07
-1.375 	500 	2.23667e-11 	1.5e+07
-1.365 	500 	1.96562e-11 	1.5e+07
-1.355 	500 	1.40984e-16 	1.5e+07
-1.345 	500 	8.13349e-12 	1.5e+07
-1.335 	500 	3.82708e-11 	1.5e+07
-1.325 	500 	9.06383e-11 	1.5e+07
-1.315 	500 	8.1603e-11 	1.5e+07
-1.305 	500 	4.59436e-11 	1.5e+07
-1.295 	500 	1.17963e-11 	1.5e+07
-1.285 	500 	2.45348e-11 	1.5e+07
-1.275 	500 	3.82068e-11 	1.5e+07
-1.265 	500 	1.15226e-11 	1.5e+07
-1.255 	500 	1.03276e-11 	1.5e+07
-1.245 	500 	6.22635e-12 	1.5e+07
-1.235 	500 	8.13361e-12 	1.5e+07
-1.225 	500 	3.00818e-30 	1.5e+07
-1.215 	500 	2.71122e-18 	1.5e+07
-1.205 	500 	5.95932e-12 	1.5e+07
-1.195 	500 	1.52395e-11 	1.5e+07
-1.185 	500 	2.65128e-11 	1.5e+07
-1.175 	500 	1.08448e-11 	1.5e+07
-1.165 	500 	3.52459e-17 	1.5e+07
-1.155 	500 	3.18962e-34 	1.5e+07
-1.145 	500 	9.07223e-12 	1.5e+07
-1.135 	500 	2.96243e-11 	1.5e+07
-1.125 	500 	2.25721e-11 	1.5e+07
-1.115 	500 	1.0167e-11 	1.5e+07
-1.105 	500 	9.48915e-12 	1.5e+07
-1.095 	500 	1.76229e-11 	1.5e+07
-1.085 	500 	1.60147e-11 	1.5e+07
-1.075 	500 	2.1594e-10 	1.5e+07
-1.065 	500 	1.99874e-09 	1.5e+07
-1.055 	500 	9.66338e-09 	1.5e+07
-1.045 	500 	4.05183e-08 	1.5e+07
-1.035 	500 	1.59336e-07 	1.5e+07
-1.025 	500 	6.00466e-07 	1.5e+07
-1.015 	500 	2.1794e-06 	1.5e+07
-1.005 	500 	7.62579e-06 	1.5e+07
-0.995 	500 	2.57097e-05 	1.5e+07
-0.985 	500 	8.34487e-05 	1.5e+07
-0.975 	500 	0.000260537 	1.5e+07
-0.965 	500 	0.000781665 	1.5e+07
-0.955 	499.999 	0.00230483 	1.49999e+07
-0.945 	499.998 	0.00649988 	1.49996e+07
-0.935 	499.995 	0.017491 	1.49991e+07
-0.925 	499.988 	0.044761 	1.49976e+07
-0.915 	499.971 	0.10801 	1.49942e+07
-0.905 	499.934 	0.242324 	1.49871e+07
-0.895 	499.863 	0.505317 	1.49732e+07
-0.885 	499.734 	0.979318 	1.49479e+07
-0.875 	499.521 	1.76101 	1.49064e+07
-0.865 	499.201 	2.93733 	1.48441e+07
-0.855 	498.761 	4.55569 	1.47589e+07
-0.845 	498.205 	6.60636 	1.46515e+07
-0.835 	497.547 	9.02957 	1.45257e+07
-0.825 	496.812 	11.746 	1.4386e+07
-0.815 	496.021 	14.6685 	1.42371e+07
-0.805 	495.194 	17.7356 	1.40825e+07
-0.795 	494.339 	20.9045 	1.39244e+07
-0.785 	493.465 	24.147 	1.37645e+07
-0.775 	492.578 	27.4446 	1.36036e+07
-0.765 	491.681 	30.7847 	1.34423e+07
-0.755 	490.775 	34.1583 	1.32813e+07
-0.745 	489.863 	37.559 	1.31209e+07
-0.735 	488.946 	40.982 	1.29612e+07
-0.725 	488.025 	44.4235 	1.28025e+07
-0.715 	487.101 	47.8809 	1.26447e+07
-0.705 	486.174 	51.3516 	1.24883e+07
-0.695 	485.245 	54.834 	1.23331e+07
-0.685 	484.314 	58.3265 	1.21794e+07
-0.675 	483.382 	61.8276 	1.20269e+07
-0.665 	482.449 	65.3365 	1.1876e+07
-0.655 	481.515 	68.8522 	1.17265e+07
-0.645 	480.58 	72.3739 	1.15785e+07
-0.635 	479.646 	75.9012 	1.14319e+07
-0.625 	478.71 	79.4334 	1.1287e+07
-0.615 	477.774 	82.9699 	1.11435e+07
-0.605 	476.839 	86.5105 	1.10015e+07
-0.595 	475.902 	90.0548 	1.0861e+07
-0.585 	474.967 	93.6024 	1.07222e+07
-0.575 	474.031 	97.153 	1.05848e+07
-0.565 	473.096 	100.707 	1.0449e+07
-0.555 	472.161 	104.263 	1.03146e+07
-0.545 	471.226 	107.821 	1.01819e+07
-0.535 	470.292 	111.382 	1.00505e+07
-0.525 	469.358 	114.944 	9.92072e+06
-0.515 	468.424 	118.509 	9.79238e+06
-0.505 	467.491 	122.075 	9.66551e+06
-0.495 	466.559 	125.643 	9.5401e+06
-0.485 	465.627 	129.213 	9.41614e+06
-0.475 	464.696 	132.784 	9.29362e+06
-0.465 	463.765 	136.356 	9.17253e+06
-0.455 	462.836 	139.93 	9.05285e+06
-0.445 	461.909 	143.505 	8.9346e+06
-0.435 	460.986 	147.082 	8.81778e+06
-0.425 	460.069 	150.658 	8.70235e+06
-0.415 	459.154 	154.236 	8.58827e+06
-0.405 	458.23 	157.813 	8.47547e+06
-0.395 	457.281 	161.392 	8.36391e+06
-0.385 	456.326 	164.974 	8.25372e+06
-0.375 	455.415 	168.557 	8.145e+06
-0.365 	454.524 	172.137 	8.03757e+06
-0.355 	453.564 	175.719 	7.93124e+06
-0.345 	452.628 	179.307 	7.82633e+06
-0.335 	451.772 	182.888 	7.72276e+06
-0.325 	450.786 	186.471 	7.6202e+06
-0.315 	449.882 	190.062 	7.51908e+06
-0.305 	449.007 	193.643 	7.41917e+06
-0.295 	448.016 	197.233 	7.32036e+06
-0.285 	447.176 	200.819 	7.22291e+06
-0.275 	446.189 	204.407 	7.12649e+06
-0.265 	445.338 	207.996 	7.03137e+06
-0.255 	444.363 	211.584 	6.9373e+06
-0.245 	443.511 	215.174 	6.84448e+06
-0.235 	442.533 	218.763 	6.75269e+06
-0.225 	441.694 	222.354 	6.66213e+06
-0.215 	440.701 	225.945 	6.57259e+06
-0.205 	439.88 	229.535 	6.48422e+06
-0.195 	438.882 	233.128 	6.39688e+06
-0.185 	438.051 	236.718 	6.31064e+06
-0.175 	437.098 	240.312 	6.22549e+06
-0.165 	436.19 	243.904 	6.14137e+06
-0.155 	435.336 	247.497 	6.05831e+06
-0.145 	434.346 	251.09 	5.97626e+06
-0.135 	433.531 	254.684 	5.89525e+06
-0.125 	432.575 	258.278 	5.81523e+06
-0.115 	431.66 	261.873 	5.73621e+06
-0.105 	430.836 	265.468 	5.65816e+06
-0.095 	429.843 	269.062 	5.5811e+06
-0.085 	428.986 	272.659 	5.50498e+06
-0.075 	428.139 	276.254 	5.42982e+06
-0.065 	427.131 	279.85 	5.35562e+06
-0.055 	426.309 	283.448 	5.28232e+06
-0.045 	425.451 	287.043 	5.20995e+06
-0.035 	424.444 	290.64 	5.13853e+06
-0.025 	423.617 	294.239 	5.06797e+06
-0.015 	422.779 	297.836 	4.9983e+06
-0.005 	421.784 	301.432 	4.92955e+06
0.005 	420.909 	305.034 	4.86163e+06
0.015 	420.115 	308.632 	4.79454e+06
0.025 	419.159 	312.228 	4.72835e+06
0.035 	418.204 	315.829 	4.663e+06
0.045 	417.422 	319.431 	4.59842e+06
0.055 	416.567 	323.028 	4.53468e+06
0.065 	415.558 	326.626 	4.47181e+06
0.075 	414.682 	330.231 	4.40969e+06
0.085 	413.923 	333.832 	4.34834e+06
0.095 	413.013 	337.428 	4.28782e+06
0.105 	412.017 	341.03 	4.2281e+06
0.115 	411.166 	344.636 	4.1691e+06
0.125 	410.407 	348.238 	4.11081e+06
0.135 	409.508 	351.835 	4.05332e+06
0.145 	408.503 	355.436 	3.99662e+06
0.155 	407.635 	359.046 	3.9406e+06
0.165 	406.895 	362.651 	3.88523e+06
0.175 	406.038 	366.248 	3.83062e+06
0.185 	405.039 	369.848 	3.77678e+06
0.195 	404.112 	373.457 	3.7236e+06
0.205 	403.342 	377.067 	3.67105e+06
0.215 	402.569 	380.668 	3.6192e+06
0.225 	401.654 	384.266 	3.56806e+06
0.235 	400.664 	387.87 	3.51763e+06
0.245 	399.771 	391.483 	3.4678e+06
0.255 	399.015 	395.094 	3.41857e+06
0.265 	398.255 	398.697 	3.36998e+06
0.275 	397.343 	402.295 	3.32208e+06
0.285 	396.336 	405.899 	3.27485e+06
0.295 	395.427 	409.514 	3.2282e+06
0.305 	394.68 	413.13 	3.18208e+06
0.315 	393.951 	416.735 	3.13657e+06
0.325 	393.084 	420.334 	3.0917e+06
0.335 	392.101 	423.936 	3.04748e+06
0.345 	391.136 	427.549 	3.00383e+06
0.355 	390.3 	431.168 	2.96071e+06
0.365 	389.58 	434.784 	2.91812e+06
0.375 	388.851 	438.39 	2.87607e+06
0.385 	387.97 	441.987 	2.83465e+06
0.395 	386.957 	445.591 	2.79384e+06
0.405 	385.996 	449.21 	2.75354e+06
0.415 	385.191 	452.832 	2.71368e+06
0.425 	384.474 	456.449 	2.67435e+06
0.435 	383.726 	460.056 	2.63555e+06
0.445 	382.89 	463.66 	2.59731e+06
0.455 	381.979 	467.267 	2.5596e+06
0.465 	381.023 	470.877 	2.52237e+06
0.475 	380.073 	474.493 	2.48567e+06
0.485 	379.237 	478.121 	2.44944e+06
0.495 	378.543 	481.747 	2.41363e+06
0.505 	377.884 	485.362 	2.37827e+06
0.515 	377.104 	488.961 	2.34343e+06
0.525 	376.147 	492.56 	2.30914e+06
0.535 	375.115 	496.172 	2.27533e+06
0.545 	374.155 	499.799 	2.24195e+06
0.555 	373.354 	503.433 	2.20894e+06
0.565 	372.672 	507.063 	2.17634e+06
0.575 	372.002 	510.677 	2.14417e+06
0.585 	371.228 	514.283 	2.11252e+06
0.595 	370.372 	517.895 	2.08132e+06
0.605 	369.488 	521.508 	2.05052e+06
0.615 	368.557 	525.122 	2.02014e+06
0.625 	367.596 	528.74 	1.99019e+06
0.635 	366.683 	532.37 	1.96066e+06
0.645 	365.906 	536.01 	1.93148e+06
0.655 	365.246 	539.646 	1.90264e+06
0.665 	364.62 	543.27 	1.8742e+06
0.675 	363.92 	546.878 	1.84615e+06
0.685 	363.049 	550.478 	1.81859e+06
0.695 	362.082 	554.093 	1.79145e+06
0.705 	361.15 	557.721 	1.76461e+06
0.715 	360.268 	561.351 	1.73809e+06
0.725 	359.388 	564.975 	1.71193e+06
0.735 	358.486 	568.602 	1.6862e+06
0.745 	357.671 	572.247 	1.66085e+06
0.755 	357.043 	575.903 	1.63574e+06
0.765 	356.523 	579.543 	1.61093e+06
0.775 	355.948 	583.157 	1.58647e+06
0.785 	355.184 	586.75 	1.56241e+06
0.795 	354.172 	590.34 	1.53879e+06
0.805 	353.02 	593.954 	1.51557e+06
0.815 	351.966 	597.606 	1.49261e+06
0.825 	351.139 	601.274 	1.46986e+06
0.835 	350.496 	604.936 	1.44734e+06
0.845 	349.903 	608.57 	1.42511e+06
0.855 	349.183 	612.176 	1.40325e+06
0.865 	348.272 	615.783 	1.38186e+06
0.875 	347.361 	619.425 	1.36081e+06
0.885 	346.631 	623.094 	1.33994e+06
0.895 	346.085 	626.764 	1.31929e+06
0.905 	345.617 	630.409 	1.29887e+06
0.915 	345.037 	634.015 	1.27874e+06
0.925 	344.169 	637.592 	1.259e+06
0.935 	342.992 	641.174 	1.23967e+06
0.945 	341.688 	644.793 	1.22065e+06
0.955 	340.495 	648.46 	1.20186e+06
0.965 	339.597 	652.163 	1.18323e+06
0.975 	339.031 	655.874 	1.16476e+06
0.985 	338.686 	659.563 	1.14647e+06
0.995 	338.364 	663.204 	1.12842e+06
1.005 	337.836 	666.798 	1.11073e+06
1.015 	337.025 	670.382 	1.09346e+06
1.025 	336.031 	673.992 	1.0765e+06
1.035 	335.05 	677.644 	1.05977e+06
1.045 	334.245 	681.327 	1.04318e+06
1.055 	333.605 	685.011 	1.02675e+06
1.065 	333.049 	688.677 	1.01051e+06
1.075 	332.455 	692.317 	994555
1.085 	331.766 	695.933 	978791
1.095 	330.834 	699.521 	963327
1.105 	329.661 	703.119 	948202
1.115 	328.412 	706.753 	933302
1.125 	327.255 	710.426 	918556
1.135 	326.263 	714.127 	904019
1.145 	325.564 	717.864 	889663
1.155 	325.206 	721.608 	875359
1.165 	325.003 	725.307 	861193
1.175 	324.73 	728.951 	847310
1.185 	324.292 	732.571 	833773
1.195 	323.736 	736.189 	820423
1.205 	323.01 	739.793 	807257
1.215 	322.055 	743.398 	794397
1.225 	321.023 	747.043 	781783
1.235 	320.114 	750.733 	769264
1.245 	319.362 	754.435 	756841
1.255 	318.693 	758.12 	744543
1.265 	317.99 	761.796 	732563
1.275 	317.412 	765.492 	720700
1.285 	316.875 	769.157 	708882
1.295 	316.177 	772.782 	697327
1.305 	315.278 	776.377 	685937
1.315 	314.059 	779.965 	674876
1.325 	312.761 	783.618 	664076
1.335 	311.704 	787.313 	653138
1.345 	310.582 	790.957 	642302
1.355 	309.224 	794.618 	631986
1.365 	308.217 	798.411 	621840
1.375 	307.874 	802.267 	611452
1.385 	307.838 	806.065 	601102
1.395 	307.774 	809.778 	591095
1.405 	307.743 	813.493 	581402
1.415 	307.801 	817.21 	571671
1.425 	307.748 	820.815 	562088
1.435 	307.544 	824.454 	552965
1.445 	307.311 	828.05 	543429
1.455 	306.347 	831.486 	534411
1.465 	304.456 	835.001 	526103
1.475 	302.984 	838.748 	517769
1.485 	302.252 	842.613 	509181
1.495 	301.981 	846.471 	500587
1.505 	302.055 	850.345 	492188
1.515 	302.106 	853.939 	482893
1.525 	301.306 	857.216 	475171
1.535 	299.453 	860.828 	468078
1.545 	298.51 	864.679 	460392
1.555 	298.103 	868.502 	452429
1.565 	297.839 	872.259 	444685
1.575 	297.553 	875.828 	436456
1.585 	296.108 	879.054 	428969
1.595 	292.579 	882.428 	422698
1.605 	290.307 	886.285 	416277
1.615 	289.608 	890.159 	408421
1.625 	288.166 	893.751 	401562
1.635 	286.135 	897.399 	395079
1.645 	286.598 	902.374 	390992
1.655 	289.226 	907.283 	380870
1.665 	291.075 	910.819 	372874
1.675 	291.34 	913.661 	365761
1.685 	290.344 	916.507 	360571
1.695 	288.926 	919.765 	354698
1.705 	286.713 	923.033 	348698
1.715 	282.891 	926.54 	343578
1.725 	280.734 	930.713 	338888
1.735 	282.228 	936.207 	333903
1.745 	285.078 	940.739 	324575
1.755 	285.942 	944.069 	318526
1.765 	285.877 	947.166 	313293
1.775 	285.414 	950.454 	308176
1.785 	284.425 	953.757 	302781
1.795 	282.512 	957.201 	298055
1.805 	280.701 	960.948 	293401
1.815 	281.139 	965.925 	290332
1.825 	284.974 	971.432 	283870
1.835 	287.97 	975.859 	276738
1.845 	289.7 	979.169 	271174
1.855 	290.26 	982.065 	266144
1.865 	289.726 	984.41 	260703
1.875 	285.909 	986.782 	256931
1.885 	276.523 	989.756 	253490
1.895 	268.106 	993.576 	250161
1.905 	265.65 	998.351 	246576
1.915 	266.409 	1003.93 	241842
1.925 	268.306 	1008.88 	236375
1.935 	270.949 	1013.86 	231937
1.945 	274.822 	1018.63 	227139
1.955 	280.005 	1023.42 	223034
1.965 	283.495 	1027.59 	217840
1.975 	285.785 	1030.72 	213201
1.985 	286.884 	1033.47 	209259
1.995 	286.401 	1035.56 	204904
2.005 	282.747 	1037.66 	201784
2.015 	274.199 	1040.04 	198461
2.025 	261.829 	1042.77 	195451
2.035 	248.418 	1046.18 	192704
2.045 	238.891 	1050.4 	189860
2.055 	236.34 	1055.75 	187595
2.065 	244.475 	1063.33 	185711
2.075 	261.311 	1070.68 	178383
2.085 	266.463 	1074.23 	171771
2.095 	267.098 	1076.3 	168362
2.105 	265.595 	1078.44 	166407
2.115 	262.043 	1081.5 	164467
2.125 	261.266 	1085.82 	163078
2.135 	265.492 	1091.8 	160862
2.145 	270.544 	1096.99 	155615
2.155 	273.754 	1100.76 	151999
2.165 	274.075 	1103.01 	147728
2.175 	270.922 	1104.03 	145053
2.185 	257.301 	1105.8 	143465
2.195 	241.711 	1108.47 	141626
2.205 	230.401 	1112.07 	139690
2.215 	224.934 	1116.52 	137490
2.225 	224.978 	1122.43 	136237
2.235 	229.813 	1129.33 	133074
2.245 	234.043 	1134.49 	127657
2.255 	241.078 	1138.74 	124939
2.265 	248.39 	1143.32 	123227
2.275 	253.346 	1147.79 	121442
2.285 	255.3 	1151.23 	118649
2.295 	255.232 	1152 	113380
2.305 	255.279 	1150.87 	108378
2.315 	258.703 	1151.11 	106824
2.325 	262.749 	1154.15 	106773
2.335 	264.561 	1159.03 	106755
2.345 	264.89 	1165.03 	106661
2.355 	264.291 	1171.77 	106234
2.365 	264.69 	1178.28 	104504
2.375 	262.907 	1181.99 	100238
2.385 	252.229 	1183.42 	97105
2.395 	240.39 	1185.13 	94782.1
2.405 	233.102 	1188.24 	92949.4
2.415 	231.133 	1192.75 	91680.3
2.425 	235.893 	1199.27 	90998.7
2.435 	245.673 	1205.9 	88554.8
2.445 	246.103 	1210.11 	86355.3
2.455 	238.533 	1213.88 	85935.5
2.465 	232.087 	1218.31 	85092.1
2.475 	229.498 	1222.45 	82841.8
2.485 	226.267 	1225.89 	80739.9
2.495 	224.187 	1229.67 	79303.3
2.505 	226.494 	1235.01 	77983.9
2.515 	232.015 	1240.12 	74940
2.525 	233.525 	1244.46 	73571.5
2.535 	233.736 	1249.38 	73016.1
2.545 	237.276 	1255.68 	72775.4
2.555 	248.629 	1263.08 	71988.4
2.565 	255.512 	1269.23 	69208.9
2.575 	258.064 	1272.51 	66808.2
2.585 	258.305 	1274.12 	65115.1
2.595 	258.122 	1274.88 	63248.1
2.605 	258.547 	1274.77 	60441.2
2.615 	262.868 	1274.13 	58213.9
2.625 	274.636 	1275.76 	58115.2
2.635 	284.964 	1279.55 	58115.8
2.645 	293.16 	1284.44 	58104.7
2.655 	297.397 	1289.77 	58033.3
2.665 	297.554 	1294.88 	57692.4
2.675 	289.16 	1298.89 	56583.1
2.685 	272.49 	1301.4 	54920.7
2.695 	254.202 	1304.05 	53939.5
2.705 	234.09 	1307.42 	53286.9
2.715 	216.027 	1311.49 	52742.6
2.725 	205.293 	1316.25 	52103.9
2.735 	203.223 	1322.21 	51617.8
2.745 	214.603 	1330.27 	51067
2.755 	237.338 	1339.05 	48865.3
2.765 	243.752 	1343.8 	45342.3
2.775 	244.248 	1345.08 	43256.6
2.785 	242.946 	1344.85 	41772.9
2.795 	240.772 	1344.86 	40579.2
2.805 	239.248 	1346.05 	39860.7
2.815 	238.988 	1349.35 	39698.5
2.825 	239.271 	1354.27 	39629.5
2.835 	242.62 	1360.13 	39542.6
2.845 	245.88 	1366.69 	39506.5
2.855 	246.636 	1373.74 	39463.7
2.865 	246.971 	1381.18 	39379.4
2.875 	252.222 	1388.93 	39261.9
2.885 	264.232 	1396.77 	38959.7
2.895 	270.121 	1403.76 	38212.5
2.905 	271.633 	1408.49 	36762.6
2.915 	271.783 	1410.75 	35175.6
2.925 	270.933 	1410.74 	33575.2
2.935 	271 	1410.46 	32561.6
2.945 	275.453 	1412.2 	32320.1
2.955 	281.739 	1416.04 	32321
2.965 	287.169 	1421.05 	32321.1
2.975 	292.5 	1426.76 	32318.5
2.985 	299.84 	1432.94 	32311.8
2.995 	310.839 	1439.58 	32274.6
3.005 	324.566 	1446.56 	32126.7
3.015 	335.492 	1453.17 	31656.6
3.025 	338.305 	1456.29 	30034.6
3.035 	333.736 	1453.37 	27926.7
3.045 	325.618 	1447.62 	25946.1
3.055 	321.408 	1443.89 	25113.2
3.065 	296.102 	1445.04 	25084.7
3.075 	264.766 	1448.95 	25073.9
3.085 	246.361 	1453.94 	25037.3
3.095 	237.915 	1459.58 	25003.5
3.105 	235.28 	1465.81 	24951.5
3.115 	235.128 	1472.64 	24916.6
3.125 	237.72 	1479.94 	24873.5
3.135 	245.266 	1487.7 	24792.8
3.145 	253.594 	1495.85 	24743.2
3.155 	261.277 	1504.12 	24641.1
3.165 	265.984 	1511.66 	24280.5
3.175 	265.839 	1516.53 	23180.2
3.185 	262.581 	1517.64 	21660.1
3.195 	261.803 	1516.45 	20248.1
3.205 	267.503 	1516.15 	19782.9
3.215 	277.721 	1518.58 	19780.7
3.225 	285.07 	1522.47 	19780.3
3.235 	290.01 	1527.02 	19771
3.245 	292.571 	1531.78 	19711.3
3.255 	292.909 	1536.15 	19469.6
3.265 	288.394 	1538.45 	18596.9
3.275 	282.915 	1538.38 	17548.2
3.285 	281.736 	1539.05 	17011.2
3.295 	286.785 	1541.91 	16888.2
3.305 	294.97 	1546.58 	16890.3
3.315 	302.148 	1552.12 	16900.1
3.325 	306.59 	1558.1 	16912.3
3.335 	308.61 	1564.27 	16911.6
3.345 	311.077 	1570.57 	16908
3.355 	314.645 	1576.95 	16891.3
3.365 	318.472 	1583.38 	16848.3
3.375 	322.206 	1589.87 	16794.8
3.385 	326.118 	1596.4 	16697.2
3.395 	329.203 	1602.31 	16379
3.405 	328.497 	1605.14 	15485.5
3.415 	325.597 	1603.76 	14385.4
3.425 	326.648 	1601.16 	13644.2
3.435 	335.668 	1602.19 	13610.3
3.445 	343.792 	1606.12 	13611
3.455 	351.166 	1611.32 	13611.6
3.465 	358.874 	1617.09 	13613.9
3.475 	363.865 	1623.1 	13614.1
3.485 	367.722 	1629.2 	13607.8
3.495 	371.819 	1635.35 	13603.9
3.505 	375.402 	1641.55 	13594.3
3.515 	383.437 	1647.84 	13582.9
3.525 	395.813 	1654.37 	13565.7
3.535 	405.429 	1661.25 	13553
3.545 	414.201 	1668.46 	13524.2
3.555 	429.428 	1675.91 	13510.5
3.565 	445.622 	1683.05 	13448.4
3.575 	451 	1687.99 	13281.6
3.585 	437.947 	1687.86 	12857
3.595 	365.483 	1686.29 	12689.8
3.605 	308.785 	1684.64 	12266.4
3.615 	275.967 	1683.47 	11793.6
3.625 	259.138 	1683.39 	11332.5
3.635 	252.55 	1684.54 	10927.9
3.645 	251.956 	1687.38 	10682.3
3.655 	254.266 	1691.15 	10382.3
3.665 	262.868 	1695.27 	10277
3.675 	275.3 	1700.57 	10276.6
3.685 	288.367 	1706.73 	10275.3
3.695 	300.822 	1713.44 	10273.8
3.705 	311.889 	1720.48 	10271.2
3.715 	320.805 	1727.69 	10258.2
3.725 	326.712 	1734.97 	10237.1
3.735 	332.762 	1742.28 	10220.7
3.745 	341.551 	1749.69 	10205.3
3.755 	351.317 	1757.07 	10142.9
3.765 	356.173 	1763.34 	9975.08
3.775 	353.553 	1766.32 	9500.03
3.785 	347.454 	1765.68 	8941.16
3.795 	342.696 	1761.91 	8227.5
3.805 	345.11 	1757.13 	7727.07
3.815 	358.644 	1756.58 	7694.45
3.825 	369.307 	1759.97 	7700.3
3.835 	374.313 	1765.42 	7704.39
3.845 	375.881 	1771.85 	7707.07
3.855 	377.368 	1778.72 	7707.49
3.865 	384.783 	1785.84 	7706.54
3.875 	395.498 	1793.17 	7704.63
3.885 	404.007 	1800.5 	7702.71
3.895 	408.865 	1807.58 	7698.48
3.905 	410.295 	1814.13 	7670.86
3.915 	410.096 	1819.94 	7614.5
3.925 	408.874 	1824.23 	7413.55
3.935 	407.399 	1825.32 	6934.91
3.945 	414.555 	1826 	6746.44
3.955 	429.943 	1829.55 	6746.97
3.965 	443.681 	1834.9 	6752.58
3.975 	456.231 	1841.07 	6757.14
3.985 	464.16 	1847.51 	6756.27
3.995 	469.616 	1853.94 	6759.03
4.005 	477.957 	1860.16 	6758.93
4.015 	489.253 	1866.04 	6760.81
4.025 	498.05 	1871.44 	6756.11
4.035 	501.408 	1876.17 	6758.12
4.045 	500.554 	1880.11 	6752.91
4.055 	478.644 	1883.34 	6748.21
4.065 	421.164 	1886.03 	6741.46
4.075 	375.837 	1888.37 	6703.98
4.085 	346.143 	1890.31 	6597.4
4.095 	326.604 	1890.35 	6244.06
4.105 	311.891 	1888.5 	5877.27
4.115 	306.681 	1887 	5585.87
4.125 	305.687 	1886.57 	5375.19
4.135 	306.643 	1887.11 	5198.49
4.145 	317.413 	1889.24 	5157.78
4.155 	332.077 	1893.21 	5159.31
4.165 	346.359 	1898.31 	5161.47
4.175 	359.633 	1904.09 	5161.7
4.185 	371.696 	1910.3 	5160.39
4.195 	383.058 	1916.8 	5159.95
4.205 	394.046 	1923.48 	5156.52
4.215 	404.57 	1930.29 	5155.56
4.225 	413.58 	1937.21 	5146.7
4.235 	420.262 	1944.19 	5146.59
4.245 	424.274 	1951.19 	5134.28
4.255 	426.318 	1958.18 	5133.06
4.265 	426.825 	1965.13 	5118.37
4.275 	427.049 	1972.07 	5113.93
4.285 	427.356 	1979.01 	5096.52
4.295 	431.084 	1985.96 	5089.94
4.305 	435.281 	1992.98 	5069.66
4.315 	440.897 	2000.07 	5061.9
4.325 	451.689 	2007.26 	5042.14
4.335 	463.908 	2014.44 	5035.96
4.345 	469.581 	2021.27 	5013
4.355 	470.318 	2027.43 	4991.5
4.365 	468.942 	2032.77 	4916.24
4.375 	467.063 	2035.74 	4707.23
4.385 	466.002 	2034.44 	4398.04
4.395 	463.49 	2030.37 	4142.41
4.405 	459.773 	2022.5 	3803.23
4.415 	468.542 	2015.35 	3662.85
4.425 	485.104 	2013.84 	3661.04
4.435 	497.211 	2016.46 	3667.83
4.445 	506.621 	2021.83 	3694.38
4.455 	515.409 	2030.25 	3794.92
4.465 	519.251 	2040.91 	3887.27
4.475 	518.145 	2050.72 	3902.25
4.485 	517.271 	2059.4 	3902.22
4.495 	519.915 	2067.57 	3901.67
4.505 	535.395 	2075.67 	3898.58
4.515 	550.948 	2083.8 	3889.52
4.525 	566.256 	2091.73 	3875.7
4.535 	574.375 	2098.58 	3844.53
4.545 	570.792 	2103.28 	3777.74
4.555 	562.581 	2107.12 	3699.58
4.565 	561.686 	2108.08 	3496.04
4.575 	555.455 	2103.26 	3305.99
4.585 	521.048 	2097.27 	3220.66
4.595 	471.368 	2093.04 	3157.35
4.605 	425.161 	2091.64 	3118.26
4.615 	390.407 	2092.68 	3085.89
4.625 	368.037 	2095.39 	3065.23
4.635 	354.93 	2099.19 	3048.85
4.645 	348.284 	2103.66 	3035.24
4.655 	345.724 	2108.63 	3026.06
4.665 	345.315 	2114.07 	3022.07
4.675 	346.022 	2119.87 	3015.61
4.685 	351.93 	2125.79 	3001.17
4.695 	362.946 	2131.97 	2994.88
4.705 	375.077 	2138.5 	2987.79
4.715 	387.54 	2145.27 	2979.65
4.725 	400.359 	2152.25 	2972.53
4.735 	413.726 	2159.44 	2967.81
4.745 	427.83 	2166.84 	2964.84
4.755 	441.959 	2174.43 	2960.63
4.765 	454.858 	2182.12 	2954.87
4.775 	466.053 	2189.89 	2949.02
4.785 	475.627 	2197.66 	2942.5
4.795 	483.451 	2205.42 	2934.57
4.805 	489.918 	2213.18 	2926.91
4.815 	494.45 	2220.81 	2913.09
4.825 	495.95 	2227.7 	2880.43
4.835 	493.061 	2232.98 	2813.55
4.845 	483.699 	2235.21 	2685.3
4.855 	478.469 	2234.29 	2535.46
4.865 	476.449 	2231.16 	2383.39
4.875 	487.202 	2229.96 	2350.86
4.885 	500.054 	2232.24 	2350.62
4.895 	509.767 	2236.26 	2350.6
4.905 	518.47 	2241.01 	2351.06
4.915 	526.232 	2246.06 	2350.56
4.925 	532.643 	2251.24 	2350.22
4.935 	538.099 	2256.43 	2348.05
4.945 	543.781 	2261.61 	2346.84
4.955 	549.144 	2266.72 	2343.87
4.965 	553.029 	2271.71 	2338.5
4.975 	555.071 	2276.42 	2331.12
4.985 	554.743 	2280.39 	2302.06
4.995 	548.267 	2282.06 	2218.76
