-4.995 	500 	7.93033e-12 	1.5e+07
-4.985 	500 	7.3203e-12 	1.5e+07
-4.975 	500 	1.22005e-12 	1.5e+07
-4.965 	500 	1.83008e-12 	1.5e+07
-4.955 	500 	5.49023e-12 	1.5e+07
-4.945 	500 	4.8802e-12 	1.5e+07
-4.935 	500 	2.08452e-24 	1.5e+07
-4.925 	500 	2.0852e-24 	1.5e+07
-4.915 	500 	4.8802e-12 	1.5e+07
-4.905 	500 	5.49023e-12 	1.5e+07
-4.895 	500 	1.83006e-11 	1.5e+07
-4.885 	500 	1.34203e-11 	1.5e+07
-4.875 	500 	6.10025e-13 	1.5e+07
-4.865 	500 	4.51463e-24 	1.5e+07
-4.855 	500 	8.44477e-72 	1.5e+07
-4.845 	500 	3.8216e-24 	1.5e+07
-4.835 	500 	1.83008e-12 	1.5e+07
-4.825 	500 	2.4401e-12 	1.5e+07
-4.815 	500 	2.50572e-23 	1.5e+07
-4.805 	500 	1.09803e-11 	1.5e+07
-4.795 	500 	8.54016e-12 	1.5e+07
-4.785 	500 	4.8802e-12 	1.5e+07
-4.775 	500 	5.49023e-12 	1.5e+07
-4.765 	500 	7.93033e-12 	1.5e+07
-4.755 	500 	1.22005e-12 	1.5e+07
-4.745 	500 	4.16904e-24 	1.5e+07
-4.735 	500 	1.11596e-70 	1.5e+07
-4.725 	500 	7.3203e-12 	1.5e+07
-4.715 	500 	4.51105e-34 	1.5e+07
-4.705 	500 	6.10024e-12 	1.5e+07
-4.695 	500 	4.51753e-24 	1.5e+07
-4.685 	500 	3.34656e-11 	1.5e+07
-4.675 	500 	3.04156e-11 	1.5e+07
-4.665 	500 	3.66015e-12 	1.5e+07
-4.655 	500 	3.05013e-12 	1.5e+07
-4.645 	500 	4.51618e-24 	1.5e+07
-4.635 	500 	6.10025e-12 	1.5e+07
-4.625 	500 	7.93033e-12 	1.5e+07
-4.615 	500 	2.71122e-18 	1.5e+07
-4.605 	500 	3.52459e-17 	1.5e+07
-4.595 	500 	4.10095e-35 	1.5e+07
-4.585 	500 	7.93033e-12 	1.5e+07
-4.575 	500 	6.10025e-12 	1.5e+07
-4.565 	500 	1.38968e-24 	1.5e+07
-4.555 	500 	2.77818e-24 	1.5e+07
-4.545 	500 	1.64705e-11 	1.5e+07
-4.535 	500 	1.15903e-11 	1.5e+07
-4.525 	500 	2.16898e-17 	1.5e+07
-4.515 	500 	7.93033e-12 	1.5e+07
-4.505 	500 	1.83008e-12 	1.5e+07
-4.495 	500 	3.8272e-24 	1.5e+07
-4.485 	500 	7.96041e-111 	1.5e+07
-4.475 	500 	1.14053e-79 	1.5e+07
-4.465 	500 	4.16908e-24 	1.5e+07
-4.455 	500 	1.22005e-12 	1.5e+07
-4.445 	500 	1.83008e-12 	1.5e+07
-4.435 	500 	1.64039e-34 	1.5e+07
-4.425 	500 	4.8802e-12 	1.5e+07
-4.415 	500 	4.27018e-12 	1.5e+07
-4.405 	500 	2.43112e-24 	1.5e+07
-4.395 	500 	1.73709e-24 	1.5e+07
-4.385 	500 	5.49023e-12 	1.5e+07
-4.375 	500 	6.10025e-12 	1.5e+07
-4.365 	500 	1.22005e-12 	1.5e+07
-4.355 	500 	0 	1.5e+07
-4.345 	500 	0 	1.5e+07
-4.335 	500 	6.10025e-13 	1.5e+07
-4.325 	500 	1.22005e-12 	1.5e+07
-4.315 	500 	2.01306e-11 	1.5e+07
-4.305 	500 	1.89105e-11 	1.5e+07
-4.295 	500 	3.05013e-12 	1.5e+07
-4.285 	500 	4.27018e-12 	1.5e+07
-4.275 	500 	1.64704e-11 	1.5e+07
-4.265 	500 	9.76018e-12 	1.5e+07
-4.255 	500 	1.28104e-11 	1.5e+07
-4.245 	500 	1.15903e-11 	1.5e+07
-4.235 	500 	7.93033e-12 	1.5e+07
-4.225 	500 	6.10056e-13 	1.5e+07
-4.215 	500 	7.21936e-27 	1.5e+07
-4.205 	500 	6.10025e-13 	1.5e+07
-4.195 	500 	7.93033e-12 	1.5e+07
-4.185 	500 	0 	1.5e+07
-4.175 	500 	5.49023e-12 	1.5e+07
-4.165 	500 	3.05013e-12 	1.5e+07
-4.155 	500 	0 	1.5e+07
-4.145 	500 	4.27018e-12 	1.5e+07
-4.135 	500 	1.76905e-11 	1.5e+07
-4.125 	500 	1.89105e-11 	1.5e+07
-4.115 	500 	3.47522e-24 	1.5e+07
-4.105 	500 	6.94657e-25 	1.5e+07
-4.095 	500 	7.3203e-12 	1.5e+07
-4.085 	500 	7.93033e-12 	1.5e+07
-4.075 	500 	6.10025e-13 	1.5e+07
-4.065 	500 	0 	1.5e+07
-4.055 	500 	1.38985e-23 	1.5e+07
-4.045 	500 	1.03703e-11 	1.5e+07
-4.035 	500 	1.40304e-11 	1.5e+07
-4.025 	500 	4.51847e-24 	1.5e+07
-4.015 	500 	4.27018e-12 	1.5e+07
-4.005 	500 	4.8802e-12 	1.5e+07
-3.995 	500 	1.64039e-34 	1.5e+07
-3.985 	500 	6.10017e-12 	1.5e+07
-3.975 	500 	6.71019e-12 	1.5e+07
-3.965 	500 	6.10025e-13 	1.5e+07
-3.955 	500 	1.76089e-27 	1.5e+07
-3.945 	500 	7.93033e-12 	1.5e+07
-3.935 	500 	6.71028e-12 	1.5e+07
-3.925 	500 	1.40303e-11 	1.5e+07
-3.915 	500 	1.03702e-11 	1.5e+07
-3.905 	500 	3.05013e-12 	1.5e+07
-3.895 	500 	7.32032e-12 	1.5e+07
-3.885 	500 	4.27018e-12 	1.5e+07
-3.875 	500 	3.05013e-12 	1.5e+07
-3.865 	500 	2.4401e-12 	1.5e+07
-3.855 	500 	1.04195e-24 	1.5e+07
-3.845 	500 	6.71028e-12 	1.5e+07
-3.835 	500 	7.3203e-12 	1.5e+07
-3.825 	500 	4.07183e-23 	1.5e+07
-3.815 	500 	1.83015e-12 	1.5e+07
-3.805 	500 	9.15033e-12 	1.5e+07
-3.795 	500 	1.83008e-12 	1.5e+07
-3.785 	500 	2.4401e-12 	1.5e+07
-3.775 	500 	4.8941e-111 	1.5e+07
-3.765 	500 	2.4313e-24 	1.5e+07
-3.755 	500 	4.27018e-12 	1.5e+07
-3.745 	500 	4.8802e-12 	1.5e+07
-3.735 	500 	5.49024e-12 	1.5e+07
-3.725 	500 	7.93031e-12 	1.5e+07
-3.715 	500 	1.22005e-12 	1.5e+07
-3.705 	500 	7.30273e-24 	1.5e+07
-3.695 	500 	2.37907e-11 	1.5e+07
-3.685 	500 	2.19606e-11 	1.5e+07
-3.675 	500 	6.26475e-24 	1.5e+07
-3.665 	500 	0 	1.5e+07
-3.655 	500 	2.4401e-12 	1.5e+07
-3.645 	500 	1.28104e-11 	1.5e+07
-3.635 	500 	1.64706e-11 	1.5e+07
-3.625 	500 	7.93029e-12 	1.5e+07
-3.615 	500 	4.51877e-24 	1.5e+07
-3.605 	500 	5.49023e-12 	1.5e+07
-3.595 	500 	6.10025e-12 	1.5e+07
-3.585 	500 	9.43081e-71 	1.5e+07
-3.575 	500 	3.47458e-25 	1.5e+07
-3.565 	500 	7.93033e-12 	1.5e+07
-3.555 	500 	7.32028e-12 	1.5e+07
-3.545 	500 	2.44029e-12 	1.5e+07
-3.535 	500 	9.76037e-12 	1.5e+07
-3.525 	500 	9.4554e-12 	1.5e+07
-3.515 	500 	3.05013e-12 	1.5e+07
-3.505 	500 	3.66015e-12 	1.5e+07
-3.495 	500 	3.66015e-12 	1.5e+07
-3.485 	500 	3.05013e-12 	1.5e+07
-3.475 	500 	2.44009e-12 	1.5e+07
-3.465 	500 	3.6601e-12 	1.5e+07
-3.455 	500 	1.25844e-11 	1.5e+07
-3.445 	500 	1.23871e-11 	1.5e+07
-3.435 	500 	4.24259e-12 	1.5e+07
-3.425 	500 	7.93032e-12 	1.5e+07
-3.415 	500 	6.71028e-12 	1.5e+07
-3.405 	500 	1.04305e-24 	1.5e+07
-3.395 	500 	5.49023e-12 	1.5e+07
-3.385 	500 	4.8802e-12 	1.5e+07
-3.375 	500 	1.15903e-11 	1.5e+07
-3.365 	500 	1.64706e-11 	1.5e+07
-3.355 	500 	4.8802e-12 	1.5e+07
-3.345 	500 	2.4401e-12 	1.5e+07
-3.335 	500 	1.83008e-12 	1.5e+07
-3.325 	500 	3.82409e-24 	1.5e+07
-3.315 	500 	3.47311e-25 	1.5e+07
-3.305 	500 	7.93033e-12 	1.5e+07
-3.295 	500 	4.57527e-12 	1.5e+07
-3.285 	500 	7.93031e-12 	1.5e+07
-3.275 	500 	7.93026e-12 	1.5e+07
-3.265 	500 	1.39909e-24 	1.5e+07
-3.255 	500 	7.93033e-12 	1.5e+07
-3.245 	500 	4.27018e-12 	1.5e+07
-3.235 	500 	2.43466e-24 	1.5e+07
-3.225 	500 	3.05012e-12 	1.5e+07
-3.215 	500 	2.44009e-12 	1.5e+07
-3.205 	500 	6.10023e-12 	1.5e+07
-3.195 	500 	6.71025e-12 	1.5e+07
-3.185 	500 	6.10025e-13 	1.5e+07
-3.175 	500 	1.18953e-11 	1.5e+07
-3.165 	500 	7.62522e-12 	1.5e+07
-3.155 	500 	6.71019e-12 	1.5e+07
-3.145 	500 	1.22005e-11 	1.5e+07
-3.135 	500 	5.49023e-12 	1.5e+07
-3.125 	500 	3.05013e-12 	1.5e+07
-3.115 	500 	1.22005e-11 	1.5e+07
-3.105 	500 	1.83021e-12 	1.5e+07
-3.095 	500 	4.57512e-12 	1.5e+07
-3.085 	500 	3.66009e-12 	1.5e+07
-3.075 	500 	6.71031e-12 	1.5e+07
-3.065 	500 	6.71028e-12 	1.5e+07
-3.055 	500 	8.49723e-72 	1.5e+07
-3.045 	500 	4.52068e-24 	1.5e+07
-3.035 	500 	6.10025e-13 	1.5e+07
-3.025 	500 	1.58606e-11 	1.5e+07
-3.015 	500 	7.93028e-12 	1.5e+07
-3.005 	500 	1.09804e-11 	1.5e+07
-2.995 	500 	1.45812e-39 	1.5e+07
-2.985 	500 	9.76032e-12 	1.5e+07
-2.975 	500 	2.13503e-12 	1.5e+07
-2.965 	500 	7.93026e-12 	1.5e+07
-2.955 	500 	1.09803e-11 	1.5e+07
-2.945 	500 	6.10017e-12 	1.5e+07
-2.935 	500 	5.33126e-34 	1.5e+07
-2.925 	500 	3.47453e-25 	1.5e+07
-2.915 	500 	7.9303e-12 	1.5e+07
-2.905 	500 	3.25347e-17 	1.5e+07
-2.895 	500 	5.18527e-12 	1.5e+07
-2.885 	500 	1.58603e-11 	1.5e+07
-2.875 	500 	1.64704e-11 	1.5e+07
-2.865 	500 	1.15902e-11 	1.5e+07
-2.855 	500 	9.76032e-12 	1.5e+07
-2.845 	500 	2.43293e-24 	1.5e+07
-2.835 	500 	3.05008e-12 	1.5e+07
-2.825 	500 	4.88021e-12 	1.5e+07
-2.815 	500 	1.61655e-11 	1.5e+07
-2.805 	500 	1.46403e-11 	1.5e+07
-2.795 	500 	4.17294e-24 	1.5e+07
-2.785 	500 	3.85219e-37 	1.5e+07
-2.775 	500 	7.3203e-12 	1.5e+07
-2.765 	500 	6.71028e-12 	1.5e+07
-2.755 	500 	7.93033e-12 	1.5e+07
-2.745 	500 	3.12545e-24 	1.5e+07
-2.735 	500 	3.05013e-12 	1.5e+07
-2.725 	500 	7.93033e-12 	1.5e+07
-2.715 	500 	7.62532e-12 	1.5e+07
-2.705 	500 	1.73842e-24 	1.5e+07
-2.695 	500 	5.49023e-12 	1.5e+07
-2.685 	500 	6.10025e-12 	1.5e+07
-2.675 	500 	1.22005e-12 	1.5e+07
-2.665 	500 	4.5752e-12 	1.5e+07
-2.655 	500 	7.93033e-12 	1.5e+07
-2.645 	500 	3.47533e-25 	1.5e+07
-2.635 	500 	0 	1.5e+07
-2.625 	500 	3.69085e-34 	1.5e+07
-2.615 	500 	2.44024e-12 	1.5e+07
-2.605 	500 	1.40304e-11 	1.5e+07
-2.595 	500 	7.32032e-12 	1.5e+07
-2.585 	500 	1.58605e-11 	1.5e+07
-2.575 	500 	7.01513e-12 	1.5e+07
-2.565 	500 	5.49023e-12 	1.5e+07
-2.555 	500 	1.83008e-12 	1.5e+07
-2.545 	500 	1.22005e-12 	1.5e+07
-2.535 	500 	6.10025e-13 	1.5e+07
-2.525 	500 	1.18953e-11 	1.5e+07
-2.515 	500 	7.62522e-12 	1.5e+07
-2.505 	500 	1.22005e-12 	1.5e+07
-2.495 	500 	1.83008e-12 	1.5e+07
-2.485 	500 	7.38173e-34 	1.5e+07
-2.475 	500 	0 	1.5e+07
-2.465 	500 	1.27586e-39 	1.5e+07
-2.455 	500 	3.66015e-12 	1.5e+07
-2.445 	500 	6.10027e-12 	1.5e+07
-2.435 	500 	9.45521e-12 	1.5e+07
-2.425 	500 	1.40303e-11 	1.5e+07
-2.415 	500 	1.22005e-12 	1.5e+07
-2.405 	500 	6.10025e-13 	1.5e+07
-2.395 	500 	4.52183e-24 	1.5e+07
-2.385 	500 	4.10097e-35 	1.5e+07
-2.375 	500 	8.20194e-35 	1.5e+07
-2.365 	500 	0 	1.5e+07
-2.355 	500 	7.72276e-71 	1.5e+07
-2.345 	500 	4.8802e-12 	1.5e+07
-2.335 	500 	4.27018e-12 	1.5e+07
-2.325 	500 	3.66015e-12 	1.5e+07
-2.315 	500 	3.05013e-12 	1.5e+07
-2.305 	500 	3.1305e-24 	1.5e+07
-2.295 	500 	1.04229e-24 	1.5e+07
-2.285 	500 	6.71028e-12 	1.5e+07
-2.275 	500 	7.3203e-12 	1.5e+07
-2.265 	500 	7.93033e-12 	1.5e+07
-2.255 	500 	8.23533e-12 	1.5e+07
-2.245 	500 	1.83005e-12 	1.5e+07
-2.235 	500 	1.83008e-12 	1.5e+07
-2.225 	500 	2.4401e-12 	1.5e+07
-2.215 	500 	9.4322e-34 	1.5e+07
-2.205 	500 	0 	1.5e+07
-2.195 	500 	2.87068e-34 	1.5e+07
-2.185 	500 	4.8802e-12 	1.5e+07
-2.175 	500 	1.09805e-11 	1.5e+07
-2.165 	500 	6.10025e-12 	1.5e+07
-2.155 	500 	6.95354e-25 	1.5e+07
-2.145 	500 	7.3203e-12 	1.5e+07
-2.135 	500 	-6.60322e-28 	1.5e+07
-2.125 	500 	8.23533e-12 	1.5e+07
-2.115 	500 	1.64703e-11 	1.5e+07
-2.105 	500 	1.00653e-11 	1.5e+07
-2.095 	500 	5.49023e-12 	1.5e+07
-2.085 	500 	1.37256e-11 	1.5e+07
-2.075 	500 	4.27018e-12 	1.5e+07
-2.065 	500 	2.43273e-24 	1.5e+07
-2.055 	500 	3.05013e-12 	1.5e+07
-2.045 	500 	2.4401e-12 	1.5e+07
-2.035 	500 	3.47318e-24 	1.5e+07
-2.025 	500 	1.22005e-12 	1.5e+07
-2.015 	500 	6.10025e-13 	1.5e+07
-2.005 	500 	7.9303e-12 	1.5e+07
-1.995 	500 	2.71122e-18 	1.5e+07
-1.985 	500 	4.13526e-11 	1.5e+07
-1.975 	500 	3.26281e-11 	1.5e+07
-1.965 	500 	1.09804e-11 	1.5e+07
-1.955 	500 	1.76906e-11 	1.5e+07
-1.945 	500 	3.52459e-17 	1.5e+07
-1.935 	500 	3.52459e-17 	1.5e+07
-1.925 	500 	3.2941e-11 	1.5e+07
-1.915 	500 	1.09805e-11 	1.5e+07
-1.905 	500 	1.52502e-11 	1.5e+07
-1.895 	500 	7.93027e-12 	1.5e+07
-1.885 	500 	7.62524e-12 	1.5e+07
-1.875 	500 	3.96506e-12 	1.5e+07
-1.865 	500 	1.04267e-22 	1.5e+07
-1.855 	500 	2.62305e-11 	1.5e+07
-1.845 	500 	7.93012e-12 	1.5e+07
-1.835 	500 	2.01304e-11 	1.5e+07
-1.825 	500 	2.14211e-11 	1.5e+07
-1.815 	500 	2.19603e-11 	1.5e+07
-1.805 	500 	3.66012e-12 	1.5e+07
-1.795 	500 	2.20605e-11 	1.5e+07
-1.785 	500 	2.37486e-11 	1.5e+07
-1.775 	500 	1.22004e-11 	1.5e+07
-1.765 	500 	5.42246e-18 	1.5e+07
-1.755 	500 	3.84013e-11 	1.5e+07
-1.745 	500 	4.88706e-11 	1.5e+07
-1.735 	500 	1.46405e-11 	1.5e+07
-1.725 	500 	1.53817e-11 	1.5e+07
-1.715 	500 	3.44743e-11 	1.5e+07
-1.705 	500 	2.46711e-11 	1.5e+07
-1.695 	500 	1.13408e-11 	1.5e+07
-1.685 	500 	2.86706e-11 	1.5e+07
-1.675 	500 	7.93012e-12 	1.5e+07
-1.665 	500 	1.98253e-11 	1.5e+07
-1.655 	500 	7.62537e-12 	1.5e+07
-1.645 	500 	5.49018e-12 	1.5e+07
-1.635 	500 	2.44008e-12 	1.5e+07
-1.625 	500 	7.32028e-12 	1.5e+07
-1.615 	500 	3.52459e-17 	1.5e+07
-1.605 	500 	3.52459e-17 	1.5e+07
-1.595 	500 	2.44015e-12 	1.5e+07
-1.585 	500 	1.83006e-12 	1.5e+07
-1.575 	500 	2.44008e-12 	1.5e+07
-1.565 	500 	1.58604e-11 	1.5e+07
-1.555 	500 	1.13871e-16 	1.5e+07
-1.545 	500 	7.32023e-12 	1.5e+07
-1.535 	500 	3.52459e-17 	1.5e+07
-1.525 	500 	7.38173e-34 	1.5e+07
-1.515 	500 	0 	1.5e+07
-1.505 	500 	1.64705e-11 	1.5e+07
-1.495 	500 	1.28104e-11 	1.5e+07
-1.485 	500 	1.01558e-24 	1.5e+07
-1.475 	500 	7.32024e-12 	1.5e+07
-1.465 	500 	1.67754e-11 	1.5e+07
-1.455 	500 	1.31154e-11 	1.5e+07
-1.445 	500 	4.88018e-12 	1.5e+07
-1.435 	500 	6.10025e-12 	1.5e+07
-1.425 	500 	7.32023e-12 	1.5e+07
-1.415 	500 	1.83003e-12 	1.5e+07
-1.405 	500 	3.96514e-12 	1.5e+07
-1.395 	500 	1.31154e-11 	1.5e+07
-1.385 	500 	3.41606e-11 	1.5e+07
-1.375 	500 	2.013e-11 	1.5e+07
-1.365 	500 	1.76906e-11 	1.5e+07
-1.355 	500 	1.40984e-16 	1.5e+07
-1.345 	500 	7.32012e-12 	1.5e+07
-1.335 	500 	3.38651e-11 	1.5e+07
-1.325 	500 	6.84529e-11 	1.5e+07
-1.315 	500 	6.10818e-11 	1.5e+07
-1.305 	500 	3.90973e-11 	1.5e+07
-1.295 	500 	1.02797e-11 	1.5e+07
-1.285 	500 	2.1688e-11 	1.5e+07
-1.275 	500 	3.39366e-11 	1.5e+07
-1.265 	500 	1.03703e-11 	1.5e+07
-1.255 	500 	9.15017e-12 	1.5e+07
-1.245 	500 	4.88018e-12 	1.5e+07
-1.235 	500 	7.32024e-12 	1.5e+07
-1.225 	500 	3.00818e-30 	1.5e+07
-1.215 	500 	2.71122e-18 	1.5e+07
-1.205 	500 	5.68815e-12 	1.5e+07
-1.195 	500 	1.36128e-11 	1.5e+07
-1.185 	500 	2.3666e-11 	1.5e+07
-1.175 	500 	9.76031e-12 	1.5e+07
-1.165 	500 	3.52459e-17 	1.5e+07
-1.155 	500 	2.87066e-34 	1.5e+07
-1.145 	500 	7.03881e-12 	1.5e+07
-1.135 	500 	2.57608e-11 	1.5e+07
-1.125 	500 	1.97931e-11 	1.5e+07
-1.115 	500 	9.15033e-12 	1.5e+07
-1.105 	500 	8.54022e-12 	1.5e+07
-1.095 	500 	1.58606e-11 	1.5e+07
-1.085 	500 	1.46405e-11 	1.5e+07
-1.075 	500 	3.52459e-17 	1.5e+07
-1.065 	500 	3.66026e-12 	1.5e+07
-1.055 	500 	4.88018e-12 	1.5e+07
-1.045 	500 	4.88016e-12 	1.5e+07
-1.035 	500 	1.46402e-11 	1.5e+07
-1.025 	500 	3.23307e-11 	1.5e+07
-1.015 	500 	3.0501e-12 	1.5e+07
-1.005 	500 	2.01306e-11 	1.5e+07
-0.995 	500 	1.44229e-11 	1.5e+07
-0.985 	500 	1.28272e-10 	1.5e+07
-0.975 	500 	1.55009e-09 	1.5e+07
-0.965 	500 	8.19377e-09 	1.5e+07
-0.955 	500 	3.71516e-08 	1.5e+07
-0.945 	500 	1.55219e-07 	1.5e+07
-0.935 	500 	6.19257e-07 	1.5e+07
-0.925 	500 	2.37384e-06 	1.5e+07
-0.915 	500 	8.74971e-06 	1.5e+07
-0.905 	500 	3.09876e-05 	1.5e+07
-0.895 	500 	0.000105334 	1.5e+07
-0.885 	500 	0.000343253 	1.5e+07
-0.875 	500 	0.00107088 	1.5e+07
-0.865 	499.999 	0.00319372 	1.49999e+07
-0.855 	499.998 	0.00908889 	1.49996e+07
-0.845 	499.994 	0.0246247 	1.49987e+07
-0.835 	499.983 	0.0632833 	1.49966e+07
-0.825 	499.958 	0.154618 	1.49918e+07
-0.815 	499.905 	0.348501 	1.49815e+07
-0.805 	499.803 	0.725874 	1.49614e+07
-0.795 	499.621 	1.39486 	1.49259e+07
-0.785 	499.329 	2.46941 	1.48688e+07
-0.775 	498.903 	4.03277 	1.47863e+07
-0.765 	498.34 	6.10514 	1.46776e+07
-0.755 	497.652 	8.63831 	1.45458e+07
-0.745 	496.866 	11.5409 	1.43963e+07
-0.735 	496.008 	14.7138 	1.42345e+07
-0.725 	495.1 	18.075 	1.40652e+07
-0.715 	494.159 	21.5663 	1.38913e+07
-0.705 	493.193 	25.1494 	1.37149e+07
-0.695 	492.211 	28.8007 	1.35374e+07
-0.685 	491.217 	32.5025 	1.33596e+07
-0.675 	490.213 	36.2437 	1.31822e+07
-0.665 	489.202 	40.0165 	1.30055e+07
-0.655 	488.185 	43.815 	1.28298e+07
-0.645 	487.164 	47.6349 	1.26554e+07
-0.635 	486.139 	51.4727 	1.24823e+07
-0.625 	485.111 	55.3257 	1.23108e+07
-0.615 	484.081 	59.1917 	1.2141e+07
-0.605 	483.049 	63.069 	1.19727e+07
-0.595 	482.016 	66.956 	1.18063e+07
-0.585 	480.982 	70.8518 	1.16416e+07
-0.575 	479.947 	74.7551 	1.14787e+07
-0.565 	478.91 	78.6652 	1.13176e+07
-0.555 	477.874 	82.5815 	1.11585e+07
-0.545 	476.838 	86.5031 	1.10012e+07
-0.535 	475.801 	90.4295 	1.08457e+07
-0.525 	474.764 	94.3604 	1.06921e+07
-0.515 	473.728 	98.2951 	1.05404e+07
-0.505 	472.692 	102.234 	1.03905e+07
-0.495 	471.656 	106.175 	1.02425e+07
-0.485 	470.62 	110.12 	1.00963e+07
-0.475 	469.586 	114.068 	9.95187e+06
-0.465 	468.551 	118.018 	9.8093e+06
-0.455 	467.517 	121.97 	9.66854e+06
-0.445 	466.484 	125.925 	9.52956e+06
-0.435 	465.451 	129.882 	9.3924e+06
-0.425 	464.419 	133.84 	9.257e+06
-0.415 	463.388 	137.801 	9.12334e+06
-0.405 	462.359 	141.764 	8.99141e+06
-0.395 	461.332 	145.727 	8.8612e+06
-0.385 	460.306 	149.692 	8.73267e+06
-0.375 	459.275 	153.657 	8.60578e+06
-0.365 	458.23 	157.624 	8.48049e+06
-0.355 	457.176 	161.595 	8.35687e+06
-0.345 	456.163 	165.567 	8.23506e+06
-0.335 	455.206 	169.536 	8.11494e+06
-0.325 	454.177 	173.503 	7.99612e+06
-0.315 	453.061 	177.48 	7.87879e+06
-0.305 	452.111 	181.456 	7.76342e+06
-0.295 	451.109 	185.425 	7.64937e+06
-0.285 	450.018 	189.405 	7.53679e+06
-0.275 	449.077 	193.38 	7.42589e+06
-0.265 	447.998 	197.357 	7.3163e+06
-0.255 	447.025 	201.337 	7.20832e+06
-0.245 	445.979 	205.313 	7.10168e+06
-0.235 	444.986 	209.295 	6.99657e+06
-0.225 	443.956 	213.272 	6.89281e+06
-0.215 	442.962 	217.256 	6.79051e+06
-0.205 	441.925 	221.234 	6.68953e+06
-0.195 	440.957 	225.218 	6.58999e+06
-0.185 	439.881 	229.198 	6.49173e+06
-0.175 	438.965 	233.183 	6.39491e+06
-0.165 	437.851 	237.166 	6.29934e+06
-0.155 	436.955 	241.149 	6.20513e+06
-0.145 	435.861 	245.134 	6.11218e+06
-0.135 	434.9 	249.118 	6.0205e+06
-0.125 	433.92 	253.104 	5.9301e+06
-0.115 	432.836 	257.09 	5.84092e+06
-0.105 	431.942 	261.076 	5.75297e+06
-0.095 	430.875 	265.063 	5.66624e+06
-0.085 	429.857 	269.051 	5.5807e+06
-0.075 	428.967 	273.038 	5.49634e+06
-0.065 	427.854 	277.026 	5.41316e+06
-0.055 	426.886 	281.015 	5.33111e+06
-0.045 	425.987 	285.004 	5.25022e+06
-0.035 	424.873 	288.992 	5.17049e+06
-0.025 	423.904 	292.984 	5.09184e+06
-0.015 	423.016 	296.974 	5.01427e+06
-0.005 	421.93 	300.962 	4.93782e+06
0.005 	420.906 	304.955 	4.86244e+06
0.015 	420.046 	308.948 	4.78805e+06
0.025 	419.027 	312.936 	4.71476e+06
0.035 	417.929 	316.929 	4.64252e+06
0.045 	417.033 	320.925 	4.57123e+06
0.055 	416.139 	324.916 	4.50094e+06
0.065 	415.044 	328.906 	4.4317e+06
0.075 	413.996 	332.903 	4.36343e+06
0.085 	413.156 	336.901 	4.29607e+06
0.095 	412.23 	340.891 	4.22969e+06
0.105 	411.111 	344.882 	4.16432e+06
0.115 	410.096 	348.883 	4.09985e+06
0.125 	409.262 	352.882 	4.03621e+06
0.135 	408.341 	356.873 	3.97352e+06
0.145 	407.251 	360.865 	3.91179e+06
0.155 	406.203 	364.866 	3.85091e+06
0.165 	405.324 	368.87 	3.79084e+06
0.175 	404.478 	372.866 	3.73161e+06
0.185 	403.473 	376.856 	3.67329e+06
0.195 	402.356 	380.852 	3.61586e+06
0.205 	401.364 	384.86 	3.5592e+06
0.215 	400.556 	388.866 	3.50329e+06
0.225 	399.701 	392.859 	3.4482e+06
0.235 	398.644 	396.85 	3.394e+06
0.245 	397.534 	400.851 	3.3406e+06
0.255 	396.572 	404.862 	3.28789e+06
0.265 	395.754 	408.87 	3.2359e+06
0.275 	394.917 	412.867 	3.18468e+06
0.285 	393.928 	416.859 	3.13424e+06
0.295 	392.815 	420.857 	3.0846e+06
0.305 	391.762 	424.867 	3.03566e+06
0.315 	390.906 	428.885 	2.98734e+06
0.325 	390.14 	432.89 	2.93968e+06
0.335 	389.246 	436.883 	2.89278e+06
0.345 	388.199 	440.879 	2.84667e+06
0.355 	387.132 	444.884 	2.80119e+06
0.365 	386.116 	448.896 	2.75636e+06
0.375 	385.204 	452.912 	2.71217e+06
0.385 	384.402 	456.927 	2.66859e+06
0.395 	383.622 	460.933 	2.62563e+06
0.405 	382.702 	464.925 	2.58334e+06
0.415 	381.588 	468.919 	2.54178e+06
0.425 	380.45 	472.931 	2.50084e+06
0.435 	379.481 	476.959 	2.46042e+06
0.445 	378.704 	480.985 	2.42052e+06
0.455 	377.975 	484.997 	2.3812e+06
0.465 	377.137 	488.995 	2.34252e+06
0.475 	376.15 	492.992 	2.30449e+06
0.485 	375.089 	496.999 	2.26705e+06
0.495 	374.047 	501.015 	2.23013e+06
0.505 	373.049 	505.033 	2.19373e+06
0.515 	372.111 	509.056 	2.15788e+06
0.525 	371.291 	513.087 	2.12256e+06
0.535 	370.58 	517.111 	2.08769e+06
0.545 	369.82 	521.116 	2.05335e+06
0.555 	368.89 	525.111 	2.01962e+06
0.565 	367.814 	529.113 	1.98645e+06
0.575 	366.708 	533.13 	1.95378e+06
0.585 	365.693 	537.161 	1.92153e+06
0.595 	364.777 	541.192 	1.88972e+06
0.605 	363.9 	545.216 	1.85841e+06
0.615 	363.058 	549.247 	1.82764e+06
0.625 	362.35 	553.288 	1.79728e+06
0.635 	361.711 	557.313 	1.76729e+06
0.645 	360.926 	561.308 	1.73779e+06
0.655 	359.864 	565.291 	1.70887e+06
0.665 	358.61 	569.294 	1.6805e+06
0.675 	357.42 	573.334 	1.65251e+06
0.685 	356.471 	577.398 	1.62484e+06
0.695 	355.762 	581.458 	1.59747e+06
0.705 	355.116 	585.488 	1.57048e+06
0.715 	354.313 	589.489 	1.54402e+06
0.725 	353.341 	593.497 	1.51811e+06
0.735 	352.387 	597.537 	1.49262e+06
0.745 	351.617 	601.6 	1.46743e+06
0.755 	351.017 	605.655 	1.44248e+06
0.765 	350.362 	609.666 	1.41789e+06
0.775 	349.398 	613.64 	1.39381e+06
0.785 	348.108 	617.618 	1.37026e+06
0.795 	346.702 	621.639 	1.34712e+06
0.805 	345.46 	625.712 	1.3243e+06
0.815 	344.606 	629.825 	1.30169e+06
0.825 	344.124 	633.932 	1.27925e+06
0.835 	343.771 	637.992 	1.25712e+06
0.845 	343.282 	641.998 	1.23543e+06
0.855 	342.503 	645.977 	1.21421e+06
0.865 	341.44 	649.966 	1.19347e+06
0.875 	340.301 	653.999 	1.1731e+06
0.885 	339.321 	658.076 	1.15297e+06
0.895 	338.583 	662.167 	1.13299e+06
0.905 	337.961 	666.231 	1.11325e+06
0.915 	337.244 	670.252 	1.09385e+06
0.925 	336.297 	674.245 	1.07486e+06
0.935 	335.115 	678.24 	1.05625e+06
0.945 	333.791 	682.258 	1.03796e+06
0.955 	332.491 	686.318 	1.01998e+06
0.965 	331.411 	690.426 	1.00224e+06
0.975 	330.686 	694.566 	984672
0.985 	330.282 	698.699 	967265
0.995 	330.022 	702.794 	950120
1.005 	329.721 	706.84 	933279
1.015 	329.216 	710.84 	916784
1.025 	328.414 	714.823 	900683
1.035 	327.384 	718.826 	884939
1.045 	326.303 	722.867 	869408
1.055 	325.249 	726.933 	854087
1.065 	324.287 	731.022 	839005
1.075 	323.491 	735.131 	824110
1.085 	322.837 	739.229 	809354
1.095 	322.168 	743.29 	794834
1.105 	321.368 	747.324 	780627
1.115 	320.434 	751.349 	766668
1.125 	319.339 	755.362 	752917
1.135 	318.019 	759.369 	739456
1.145 	316.573 	763.411 	726296
1.155 	315.231 	767.511 	713321
1.165 	314.152 	771.656 	700458
1.175 	313.339 	775.816 	687753
1.185 	312.768 	779.997 	675285
1.195 	312.551 	784.199 	663057
1.205 	312.64 	788.45 	650923
1.215 	312.989 	792.604 	638773
1.225 	312.981 	796.51 	626495
1.235 	312.357 	800.399 	615784
1.245 	311.713 	804.479 	604685
1.255 	311.007 	808.48 	593369
1.265 	309.664 	812.43 	582729
1.275 	308.181 	816.478 	572394
1.285 	306.993 	820.64 	562121
1.295 	306.262 	824.886 	551885
1.305 	306.078 	829.171 	541708
1.315 	306.091 	833.316 	530982
1.325 	305.57 	837.086 	520854
1.335 	303.769 	841.008 	512170
1.345 	302.442 	845.163 	502904
1.355 	301.516 	849.298 	493351
1.365 	300.501 	853.38 	484135
1.375 	299.468 	857.385 	474788
1.385 	297.653 	861.233 	465810
1.395 	294.921 	865.16 	457622
1.405 	292.728 	869.394 	449582
1.415 	291.807 	873.808 	441160
1.425 	291.879 	878.48 	433159
1.435 	292.773 	883.025 	424183
1.445 	293.81 	887.273 	415682
1.455 	294.703 	891.312 	407643
1.465 	295.223 	895.214 	399518
1.475 	294.703 	898.406 	390665
1.485 	290.943 	901.785 	385207
1.495 	286.833 	905.98 	379034
1.505 	286.44 	911.021 	372575
1.515 	287.17 	915.846 	363958
1.525 	288.154 	920.27 	357081
1.535 	289.392 	924.668 	349768
1.545 	290.779 	928.765 	342707
1.555 	290.856 	932.177 	334982
1.565 	288.916 	935.501 	329934
1.575 	286.84 	939.685 	325003
1.585 	287.618 	944.969 	319409
1.595 	289.638 	949.834 	311757
1.605 	290.921 	954.183 	305335
1.615 	292.444 	958.244 	299153
1.625 	293.022 	961.804 	291910
1.635 	291.545 	964.201 	285614
1.645 	283.424 	967.389 	282143
1.655 	275.724 	971.507 	277830
1.665 	271.403 	976.174 	272699
1.675 	270.79 	981.864 	269174
1.685 	272.716 	988.396 	263450
1.695 	277.191 	994.389 	256036
1.705 	282.119 	999.433 	249309
1.715 	285.292 	1003.61 	243352
1.725 	287.574 	1007 	237913
1.735 	289.466 	1010.38 	233603
1.745 	289.232 	1012.91 	227765
1.755 	284.862 	1015.15 	224476
1.765 	273.304 	1018.19 	221025
1.775 	261.649 	1021.82 	217235
1.785 	251.639 	1026.02 	213327
1.795 	244.501 	1030.84 	209202
1.805 	242.589 	1036.84 	206354
1.815 	251.6 	1045.48 	204077
1.825 	268.964 	1054.11 	195812
1.835 	274.411 	1058.47 	187629
1.845 	274.925 	1060.49 	183027
1.855 	272.796 	1062.33 	180647
1.865 	269.537 	1065.38 	178182
1.875 	269.252 	1069.78 	175788
1.885 	270.385 	1074.6 	171535
1.895 	271.466 	1078.88 	167171
1.905 	270.828 	1081.63 	162128
1.915 	265.393 	1083.94 	159189
1.925 	250.917 	1086.8 	156794
1.935 	236.923 	1090.67 	154617
1.945 	230.372 	1095.56 	151887
1.955 	229.166 	1101.53 	149693
1.965 	231.233 	1108.58 	146127
1.975 	235.635 	1113.99 	139559
1.985 	245.333 	1119.55 	138769
1.995 	255.078 	1126.37 	137631
2.005 	260.765 	1132.6 	134071
2.015 	261.898 	1134.53 	125692
2.025 	262.694 	1131.94 	118231
2.035 	268.536 	1130.89 	117110
2.045 	273.106 	1133.38 	117093
2.055 	274.08 	1137.97 	117003
2.065 	270.688 	1143.89 	116834
2.075 	264.302 	1150.75 	116402
2.085 	263.043 	1157.92 	115248
2.095 	260.381 	1163.78 	112213
2.105 	250.817 	1167.59 	108595
2.115 	241.54 	1170.64 	105319
2.125 	235.612 	1174.3 	102624
2.135 	234.058 	1179.3 	100937
2.145 	237.582 	1186.26 	99582.9
2.155 	243.525 	1193.07 	96743.9
2.165 	244.528 	1198.13 	94029.1
2.175 	241.404 	1201.62 	92573.1
2.185 	230.169 	1205.47 	91725.7
2.195 	225.814 	1210.45 	90647.6
2.205 	231.169 	1217.08 	88680.6
2.215 	237.292 	1221.85 	83520.2
2.225 	237.321 	1224.49 	81309.4
2.235 	239.493 	1228.73 	80158.1
2.245 	246.733 	1233.46 	77067.4
2.255 	251.239 	1237.77 	75530.9
2.265 	254.321 	1242.8 	74088.3
2.275 	256.752 	1247 	71202
2.285 	266.482 	1250.44 	69696.2
2.295 	278.941 	1255.53 	69697.8
2.305 	285.732 	1261.17 	69646.3
2.315 	290.588 	1266.53 	69300.1
2.325 	296.503 	1270.4 	67761.6
2.335 	298.836 	1271.12 	63593.2
2.345 	298.064 	1271.66 	61764.8
2.355 	285.995 	1273.9 	61483.8
2.365 	267.031 	1277.16 	61078
2.375 	250.274 	1280.24 	59615.6
2.385 	234.123 	1282.87 	57599.3
2.395 	221.497 	1286.31 	56162.9
2.405 	213.269 	1291.02 	55026.7
2.415 	209.887 	1296.98 	54012.8
2.425 	210.944 	1304.79 	53452.5
2.435 	226.475 	1313.01 	51397.1
2.445 	250.06 	1320.44 	50367.8
2.455 	264.512 	1328.21 	50351.8
2.465 	267.595 	1334.9 	50239.3
2.475 	262.207 	1339.93 	49821.4
2.485 	247.971 	1343.2 	48380.6
2.495 	240.181 	1346.01 	46761.8
2.505 	241.111 	1350.78 	45921.7
2.515 	249.175 	1356.01 	43796.8
2.525 	254.644 	1360.55 	42917.8
2.535 	255.896 	1366.03 	42505.2
2.545 	256.435 	1372.65 	42354.7
2.555 	265.209 	1380.74 	42163.3
2.565 	281.11 	1389.29 	41417.5
2.575 	284.347 	1394.75 	39503.8
2.585 	283.085 	1396.79 	38129.6
2.595 	281.116 	1397.42 	36784.8
2.605 	280.681 	1397.03 	34994.4
2.615 	281.518 	1395.39 	33030.8
2.625 	290.521 	1395.67 	32655.1
2.635 	300.682 	1399.06 	32654.6
2.645 	312.219 	1404.1 	32654.6
2.655 	327.015 	1410 	32656.1
2.665 	339.953 	1416.44 	32639.7
2.675 	350.621 	1423.18 	32601.5
2.685 	358.676 	1429.58 	32390.7
2.695 	358.919 	1433.4 	31535.1
2.705 	328.47 	1434.73 	31098.7
2.715 	277.897 	1437.16 	30788.9
2.725 	249.499 	1440.8 	30278.9
2.735 	238.823 	1445.57 	29738.5
2.745 	238.013 	1451.74 	29390.1
2.755 	241.549 	1458.66 	28755.2
2.765 	244.193 	1465.46 	28267.8
2.775 	246.059 	1471.83 	27473
2.785 	247.634 	1476.78 	26235.9
2.795 	248.859 	1479.79 	24711
2.805 	249.699 	1479.61 	22665.5
2.815 	260.962 	1479.82 	22192.1
2.825 	277.008 	1483.52 	22195.3
2.835 	287.563 	1489.31 	22203.8
2.845 	294.045 	1496.06 	22218.9
2.855 	299.008 	1503.1 	22219
2.865 	302.819 	1510.08 	22213
2.875 	304.233 	1516.77 	22202.5
2.885 	303.454 	1523.07 	22181
2.895 	299.106 	1529.03 	22103.3
2.905 	297.279 	1534.44 	21732
2.915 	295.794 	1537.63 	20583
2.925 	293.688 	1536.7 	18789.8
2.935 	295.689 	1534.84 	17793.4
2.945 	307.972 	1536.66 	17779.6
2.955 	315.293 	1541.36 	17783
2.965 	318.369 	1547.4 	17783.2
2.975 	320.478 	1554.06 	17782.9
2.985 	323.922 	1561.02 	17781.7
2.995 	330.564 	1568.2 	17773.5
3.005 	339.385 	1575.63 	17771
3.015 	345.913 	1583.31 	17759.4
3.025 	350.643 	1591.18 	17745.9
3.035 	356.91 	1599.15 	17721.3
3.045 	363.856 	1607.11 	17706.7
3.055 	368.356 	1614.96 	17658.6
3.065 	371.496 	1622.48 	17580.1
3.075 	374.87 	1629.11 	17323.2
3.085 	375.295 	1632.05 	16227.7
3.095 	372.452 	1629.24 	14922.7
3.105 	370.684 	1623.12 	13777
3.115 	381.659 	1619.14 	13448.8
3.125 	400.009 	1619.83 	13452.2
3.135 	418.008 	1623.25 	13472.7
3.145 	431.426 	1628.22 	13544.7
3.155 	437.377 	1634.02 	13597.3
3.165 	437.981 	1639.7 	13597.1
3.175 	432.412 	1645.32 	13594.2
3.185 	376.753 	1650.97 	13593.6
3.195 	307.705 	1656.37 	13587.5
3.205 	272.188 	1661.92 	13563.8
3.215 	260.973 	1668.14 	13515
3.225 	260.948 	1675.42 	13480.6
3.235 	272.006 	1683.6 	13369.8
3.245 	281.67 	1691.64 	13054.4
3.255 	283.631 	1697.22 	12311.2
3.265 	283.39 	1698.8 	11305.4
3.275 	285.419 	1697.02 	10390.6
3.285 	301.181 	1696.64 	10211
3.295 	319.408 	1699.71 	10216.4
3.305 	332.366 	1704.65 	10238.3
3.315 	341.894 	1710.64 	10287
3.325 	349.003 	1716.95 	10286.7
3.335 	355.818 	1723.4 	10283.3
3.345 	364.133 	1730.03 	10265
3.355 	372.177 	1736.56 	10184.9
3.365 	374.389 	1741.32 	9853.27
3.375 	370.624 	1742.6 	9297.1
3.385 	370.339 	1743.46 	8951.66
3.395 	379.362 	1746.86 	8886.74
3.405 	388.945 	1752.72 	8890.1
3.415 	395.764 	1759.89 	8904.06
3.425 	399.315 	1767.88 	8951.28
3.435 	401.711 	1776.54 	9048.38
3.445 	409.305 	1785.13 	9061.3
3.455 	422.037 	1793.39 	9063.02
3.465 	430.433 	1801.49 	9062.31
3.475 	434.058 	1809.46 	9058.19
3.485 	437.518 	1817.33 	9042.53
3.495 	444.423 	1825.11 	8997.17
3.505 	452.832 	1832.46 	8895.66
3.515 	457.329 	1837.53 	8573.58
3.525 	457.357 	1837.07 	7907.08
3.535 	455.938 	1832.29 	7348.18
3.545 	455.128 	1824.48 	6794.91
3.555 	466.18 	1818.33 	6598.63
3.565 	479.595 	1818.1 	6600.24
3.575 	485.744 	1821.72 	6603.61
3.585 	485.78 	1827.33 	6603.52
3.595 	463.939 	1833.9 	6605.63
3.605 	407.291 	1840.41 	6607.06
3.615 	366.648 	1846.59 	6603.61
3.625 	341.899 	1852.63 	6603.31
3.635 	329.247 	1858.72 	6598.59
3.645 	324.558 	1865.01 	6598.15
3.655 	323.733 	1871.58 	6589.94
3.665 	325.748 	1878.41 	6587.56
3.675 	338.855 	1885.56 	6572.86
3.685 	356.127 	1893.18 	6571.76
3.695 	372.212 	1901.21 	6557.82
3.705 	386.149 	1909.53 	6554.79
3.715 	398.527 	1918.01 	6537.68
3.725 	411.15 	1926.56 	6532.29
3.735 	421.771 	1935.07 	6514.3
3.745 	429.589 	1943.47 	6502.39
3.755 	435.425 	1951.51 	6468.28
3.765 	438.12 	1958.4 	6381.19
3.775 	432.448 	1961.81 	6085.02
3.785 	416.779 	1960.16 	5660.84
3.795 	406.351 	1955.43 	5234.37
3.805 	403.663 	1949.24 	4829.61
3.815 	414.358 	1945.86 	4708.1
3.825 	430.75 	1947.58 	4710.34
3.835 	442.516 	1952.26 	4720.61
3.845 	452.07 	1958.63 	4742.26
3.855 	462.573 	1966.26 	4788.08
3.865 	474.877 	1975.19 	4879.65
3.875 	485.187 	1984.57 	4905.99
3.885 	493.225 	1993.29 	4906.1
3.895 	501.613 	2001.62 	4905.72
3.905 	507.749 	2009.84 	4903.97
3.915 	514 	2018.01 	4896.8
3.925 	522.328 	2025.77 	4868.99
3.935 	524.803 	2031.46 	4772.5
3.945 	518.212 	2033.95 	4646.54
3.955 	509.959 	2034.46 	4496.19
3.965 	507.216 	2033.93 	4331
3.975 	505.187 	2031.76 	4114.58
3.985 	507.007 	2028.84 	3959.65
3.995 	519.233 	2028.98 	3950.51
4.005 	533.267 	2031.96 	3950.39
4.015 	549.914 	2036.41 	3950.23
4.025 	567.84 	2041.64 	3950.73
4.035 	581.63 	2047.3 	3949.67
4.045 	588.242 	2053.17 	3946.69
4.055 	589.447 	2059.13 	3942.81
4.065 	585.101 	2065.2 	3940.72
4.075 	538.095 	2071.33 	3936.09
4.085 	461.367 	2077.13 	3932.28
4.095 	406.709 	2082.68 	3927.14
4.105 	375.837 	2088.28 	3923.71
4.115 	363.635 	2094.24 	3913.92
4.125 	361.255 	2100.76 	3903.79
4.135 	363.014 	2107.89 	3896.89
4.145 	371.3 	2115.56 	3874.89
4.155 	379.349 	2123.52 	3841.89
4.165 	383.965 	2130.83 	3752.84
4.175 	383.381 	2135.18 	3490.67
4.185 	384.735 	2136.29 	3234.74
4.195 	404.455 	2138.9 	3188.49
4.205 	426.43 	2144.49 	3190.79
4.215 	444.688 	2151.62 	3200.65
4.225 	459.874 	2159.42 	3210.18
4.235 	472.059 	2167.25 	3210.1
4.245 	481.755 	2174.87 	3209.85
4.255 	488.936 	2182.15 	3208.55
4.265 	493.283 	2189.01 	3201.74
4.275 	495.061 	2195.3 	3182.85
4.285 	493.554 	2200.27 	3125.34
4.295 	483.36 	2201.63 	2941.72
4.305 	473.594 	2198.25 	2699.11
4.315 	473.937 	2193.23 	2524.55
4.325 	490.97 	2192.46 	2504.89
4.335 	508.078 	2195.93 	2506.51
4.345 	523.073 	2201.54 	2514.79
4.355 	537.153 	2208.55 	2536.89
4.365 	550.85 	2217.09 	2575.33
4.375 	560.146 	2227.01 	2617.44
4.385 	564.001 	2236.41 	2621.93
4.395 	567.416 	2244.89 	2621.92
4.405 	570.451 	2252.79 	2621.73
4.415 	572.397 	2260.27 	2620.76
4.425 	573.359 	2267.36 	2616.74
4.435 	573.045 	2273.78 	2600.36
4.445 	566.771 	2278.38 	2545.15
4.455 	557.966 	2280.25 	2456.95
4.465 	553.168 	2280.25 	2372.13
4.475 	550.456 	2279.41 	2291.53
4.485 	548.307 	2277.52 	2194.55
4.495 	548.095 	2274.42 	2097.25
4.505 	560.222 	2273.06 	2073.01
4.515 	574.309 	2275.02 	2072.69
4.525 	584.8 	2278.87 	2072.65
4.535 	595.415 	2283.73 	2073.03
4.545 	607.38 	2289.12 	2072.95
4.555 	619.439 	2294.85 	2072.74
4.565 	629.297 	2300.77 	2072
4.575 	636.734 	2306.82 	2072.05
4.585 	643.364 	2312.92 	2070.31
4.595 	651.54 	2319.06 	2069.84
4.605 	661.681 	2325.25 	2067.45
4.615 	672.285 	2331.5 	2065.93
4.625 	680.265 	2337.81 	2063.81
4.635 	684.687 	2344.16 	2059.6
4.645 	688.76 	2350.52 	2058.79
4.655 	696.297 	2356.93 	2052.94
4.665 	710.947 	2363.45 	2051.74
4.675 	730.65 	2370.11 	2044.26
4.685 	752.153 	2376.98 	2042.51
4.695 	770.744 	2384.03 	2034.55
4.705 	783.722 	2391.24 	2029.22
4.715 	790.138 	2398.58 	2020.48
4.725 	793.299 	2405.47 	1988.37
4.735 	790.52 	2407.82 	1888.73
4.745 	742.943 	2403.5 	1800.08
4.755 	644.267 	2400.8 	1758.93
4.765 	555.22 	2401.87 	1741.36
4.775 	489.923 	2405.17 	1732.7
4.785 	446.054 	2409.49 	1726.7
4.795 	419.621 	2414.32 	1721.8
4.805 	405.741 	2419.54 	1718.38
4.815 	400.026 	2425.15 	1715.02
4.825 	398.691 	2431.14 	1711.31
4.835 	399.727 	2437.55 	1707.12
4.845 	410.102 	2444.19 	1697.22
4.855 	428.307 	2451.28 	1693.95
4.865 	445.983 	2458.96 	1691.35
4.875 	463.572 	2467.04 	1686.06
4.885 	481.655 	2475.43 	1682.96
4.895 	500.461 	2484.11 	1679.94
4.905 	519.778 	2492.99 	1676.58
4.915 	539.008 	2501.98 	1672.91
4.925 	557.571 	2511.01 	1668.86
4.935 	574.67 	2520 	1663.98
4.945 	588.727 	2528.49 	1651.99
4.955 	593.633 	2534.62 	1591.96
4.965 	587.127 	2534.84 	1472.82
4.975 	572.468 	2528.29 	1326.56
4.985 	570.115 	2517.17 	1198.69
4.995 	595.384 	2510.85 	1180.63
