-4.995 	500 	7.04918e-12 	1.5e+07
-4.985 	500 	6.50694e-12 	1.5e+07
-4.975 	500 	1.08449e-12 	1.5e+07
-4.965 	500 	1.62673e-12 	1.5e+07
-4.955 	500 	4.8802e-12 	1.5e+07
-4.945 	500 	4.33796e-12 	1.5e+07
-4.935 	500 	1.46366e-24 	1.5e+07
-4.925 	500 	1.46417e-24 	1.5e+07
-4.915 	500 	4.33796e-12 	1.5e+07
-4.905 	500 	4.8802e-12 	1.5e+07
-4.895 	500 	1.62671e-11 	1.5e+07
-4.885 	500 	1.19292e-11 	1.5e+07
-4.875 	500 	5.42245e-13 	1.5e+07
-4.865 	500 	3.16991e-24 	1.5e+07
-4.855 	500 	1.37523e-72 	1.5e+07
-4.845 	500 	2.68337e-24 	1.5e+07
-4.835 	500 	1.62673e-12 	1.5e+07
-4.825 	500 	2.16898e-12 	1.5e+07
-4.815 	500 	1.75959e-23 	1.5e+07
-4.805 	500 	9.76025e-12 	1.5e+07
-4.795 	500 	7.59123e-12 	1.5e+07
-4.785 	500 	4.33796e-12 	1.5e+07
-4.775 	500 	4.8802e-12 	1.5e+07
-4.765 	500 	7.04918e-12 	1.5e+07
-4.755 	500 	1.08449e-12 	1.5e+07
-4.745 	500 	2.92733e-24 	1.5e+07
-4.735 	500 	1.77126e-71 	1.5e+07
-4.725 	500 	6.50694e-12 	1.5e+07
-4.715 	500 	4.00982e-34 	1.5e+07
-4.705 	500 	5.42243e-12 	1.5e+07
-4.695 	500 	3.17206e-24 	1.5e+07
-4.685 	500 	2.9331e-11 	1.5e+07
-4.675 	500 	2.66199e-11 	1.5e+07
-4.665 	500 	3.25347e-12 	1.5e+07
-4.655 	500 	2.71122e-12 	1.5e+07
-4.645 	500 	3.17108e-24 	1.5e+07
-4.635 	500 	5.42245e-12 	1.5e+07
-4.625 	500 	7.04918e-12 	1.5e+07
-4.615 	500 	2.71122e-18 	1.5e+07
-4.605 	500 	3.52459e-17 	1.5e+07
-4.595 	500 	3.64529e-35 	1.5e+07
-4.585 	500 	7.04918e-12 	1.5e+07
-4.575 	500 	5.42245e-12 	1.5e+07
-4.565 	500 	9.75775e-25 	1.5e+07
-4.555 	500 	1.95067e-24 	1.5e+07
-4.545 	500 	1.46404e-11 	1.5e+07
-4.535 	500 	1.03025e-11 	1.5e+07
-4.525 	500 	2.16898e-17 	1.5e+07
-4.515 	500 	7.04918e-12 	1.5e+07
-4.505 	500 	1.62673e-12 	1.5e+07
-4.495 	500 	2.68753e-24 	1.5e+07
-4.485 	500 	7.96041e-111 	1.5e+07
-4.475 	500 	4.8471e-80 	1.5e+07
-4.465 	500 	2.92734e-24 	1.5e+07
-4.455 	500 	1.08449e-12 	1.5e+07
-4.445 	500 	1.62673e-12 	1.5e+07
-4.435 	500 	1.45812e-34 	1.5e+07
-4.425 	500 	4.33796e-12 	1.5e+07
-4.415 	500 	3.79571e-12 	1.5e+07
-4.405 	500 	1.707e-24 	1.5e+07
-4.395 	500 	1.21972e-24 	1.5e+07
-4.385 	500 	4.8802e-12 	1.5e+07
-4.375 	500 	5.42245e-12 	1.5e+07
-4.365 	500 	1.08449e-12 	1.5e+07
-4.355 	500 	0 	1.5e+07
-4.345 	500 	0 	1.5e+07
-4.335 	500 	5.42245e-13 	1.5e+07
-4.325 	500 	1.08449e-12 	1.5e+07
-4.315 	500 	1.78938e-11 	1.5e+07
-4.305 	500 	1.68093e-11 	1.5e+07
-4.295 	500 	2.71122e-12 	1.5e+07
-4.285 	500 	3.79571e-12 	1.5e+07
-4.275 	500 	1.46404e-11 	1.5e+07
-4.265 	500 	8.67569e-12 	1.5e+07
-4.255 	500 	1.1387e-11 	1.5e+07
-4.245 	500 	1.03025e-11 	1.5e+07
-4.235 	500 	7.04918e-12 	1.5e+07
-4.225 	500 	5.42275e-13 	1.5e+07
-4.215 	500 	5.61542e-27 	1.5e+07
-4.205 	500 	5.42245e-13 	1.5e+07
-4.195 	500 	7.04918e-12 	1.5e+07
-4.185 	500 	0 	1.5e+07
-4.175 	500 	4.8802e-12 	1.5e+07
-4.165 	500 	2.71122e-12 	1.5e+07
-4.155 	500 	0 	1.5e+07
-4.145 	500 	3.79571e-12 	1.5e+07
-4.135 	500 	1.57249e-11 	1.5e+07
-4.125 	500 	1.68093e-11 	1.5e+07
-4.115 	500 	2.44019e-24 	1.5e+07
-4.105 	500 	4.87752e-25 	1.5e+07
-4.095 	500 	6.50694e-12 	1.5e+07
-4.085 	500 	7.04918e-12 	1.5e+07
-4.075 	500 	5.42245e-13 	1.5e+07
-4.065 	500 	0 	1.5e+07
-4.055 	500 	9.75892e-24 	1.5e+07
-4.045 	500 	9.218e-12 	1.5e+07
-4.035 	500 	1.24715e-11 	1.5e+07
-4.025 	500 	3.17276e-24 	1.5e+07
-4.015 	500 	3.79571e-12 	1.5e+07
-4.005 	500 	4.33796e-12 	1.5e+07
-3.995 	500 	1.45812e-34 	1.5e+07
-3.985 	500 	5.42237e-12 	1.5e+07
-3.975 	500 	5.96461e-12 	1.5e+07
-3.965 	500 	5.42245e-13 	1.5e+07
-3.955 	500 	1.56523e-27 	1.5e+07
-3.945 	500 	7.04918e-12 	1.5e+07
-3.935 	500 	5.96469e-12 	1.5e+07
-3.925 	500 	1.24713e-11 	1.5e+07
-3.915 	500 	9.21798e-12 	1.5e+07
-3.905 	500 	2.71122e-12 	1.5e+07
-3.895 	500 	6.50695e-12 	1.5e+07
-3.885 	500 	3.79571e-12 	1.5e+07
-3.875 	500 	2.71122e-12 	1.5e+07
-3.865 	500 	2.16898e-12 	1.5e+07
-3.855 	500 	7.31598e-25 	1.5e+07
-3.845 	500 	5.96469e-12 	1.5e+07
-3.835 	500 	6.50694e-12 	1.5e+07
-3.825 	500 	2.8594e-23 	1.5e+07
-3.815 	500 	1.62681e-12 	1.5e+07
-3.805 	500 	8.13362e-12 	1.5e+07
-3.795 	500 	1.62673e-12 	1.5e+07
-3.785 	500 	2.16898e-12 	1.5e+07
-3.775 	500 	4.8941e-111 	1.5e+07
-3.765 	500 	1.70713e-24 	1.5e+07
-3.755 	500 	3.79571e-12 	1.5e+07
-3.745 	500 	4.33796e-12 	1.5e+07
-3.735 	500 	4.88021e-12 	1.5e+07
-3.725 	500 	7.04916e-12 	1.5e+07
-3.715 	500 	1.08449e-12 	1.5e+07
-3.705 	500 	5.12794e-24 	1.5e+07
-3.695 	500 	2.11472e-11 	1.5e+07
-3.685 	500 	1.95205e-11 	1.5e+07
-3.675 	500 	4.39929e-24 	1.5e+07
-3.665 	500 	0 	1.5e+07
-3.655 	500 	2.16898e-12 	1.5e+07
-3.645 	500 	1.1387e-11 	1.5e+07
-3.635 	500 	1.46405e-11 	1.5e+07
-3.625 	500 	7.04914e-12 	1.5e+07
-3.615 	500 	3.17298e-24 	1.5e+07
-3.605 	500 	4.8802e-12 	1.5e+07
-3.595 	500 	5.42245e-12 	1.5e+07
-3.585 	500 	1.54982e-71 	1.5e+07
-3.575 	500 	2.43972e-25 	1.5e+07
-3.565 	500 	7.04918e-12 	1.5e+07
-3.555 	500 	6.50691e-12 	1.5e+07
-3.545 	500 	2.16916e-12 	1.5e+07
-3.535 	500 	8.67588e-12 	1.5e+07
-3.525 	500 	8.40481e-12 	1.5e+07
-3.515 	500 	2.71122e-12 	1.5e+07
-3.505 	500 	3.25347e-12 	1.5e+07
-3.495 	500 	3.25347e-12 	1.5e+07
-3.485 	500 	2.71122e-12 	1.5e+07
-3.475 	500 	2.16897e-12 	1.5e+07
-3.465 	500 	3.25341e-12 	1.5e+07
-3.455 	500 	1.13644e-11 	1.5e+07
-3.445 	500 	1.07414e-11 	1.5e+07
-3.435 	500 	3.52449e-12 	1.5e+07
-3.425 	500 	7.04917e-12 	1.5e+07
-3.415 	500 	5.96469e-12 	1.5e+07
-3.405 	500 	7.32415e-25 	1.5e+07
-3.395 	500 	4.8802e-12 	1.5e+07
-3.385 	500 	4.33796e-12 	1.5e+07
-3.375 	500 	1.03025e-11 	1.5e+07
-3.365 	500 	1.46405e-11 	1.5e+07
-3.355 	500 	4.33796e-12 	1.5e+07
-3.345 	500 	2.16898e-12 	1.5e+07
-3.335 	500 	1.62673e-12 	1.5e+07
-3.325 	500 	2.68522e-24 	1.5e+07
-3.315 	500 	2.43863e-25 	1.5e+07
-3.305 	500 	7.04918e-12 	1.5e+07
-3.295 	500 	4.06692e-12 	1.5e+07
-3.285 	500 	7.04916e-12 	1.5e+07
-3.275 	500 	7.04911e-12 	1.5e+07
-3.265 	500 	9.82788e-25 	1.5e+07
-3.255 	500 	7.04918e-12 	1.5e+07
-3.245 	500 	3.79571e-12 	1.5e+07
-3.235 	500 	1.70963e-24 	1.5e+07
-3.225 	500 	2.71121e-12 	1.5e+07
-3.215 	500 	2.16897e-12 	1.5e+07
-3.205 	500 	5.42242e-12 	1.5e+07
-3.195 	500 	5.96467e-12 	1.5e+07
-3.185 	500 	5.42245e-13 	1.5e+07
-3.175 	500 	1.05736e-11 	1.5e+07
-3.165 	500 	6.77797e-12 	1.5e+07
-3.155 	500 	5.96461e-12 	1.5e+07
-3.145 	500 	1.08448e-11 	1.5e+07
-3.135 	500 	4.8802e-12 	1.5e+07
-3.125 	500 	2.71122e-12 	1.5e+07
-3.115 	500 	1.08449e-11 	1.5e+07
-3.105 	500 	1.62687e-12 	1.5e+07
-3.095 	500 	4.06677e-12 	1.5e+07
-3.085 	500 	3.25342e-12 	1.5e+07
-3.075 	500 	5.96472e-12 	1.5e+07
-3.065 	500 	5.96469e-12 	1.5e+07
-3.055 	500 	1.41107e-72 	1.5e+07
-3.045 	500 	3.17453e-24 	1.5e+07
-3.035 	500 	5.42245e-13 	1.5e+07
-3.025 	500 	1.40983e-11 	1.5e+07
-3.015 	500 	7.04913e-12 	1.5e+07
-3.005 	500 	9.76036e-12 	1.5e+07
-2.995 	500 	1.45812e-39 	1.5e+07
-2.985 	500 	8.67584e-12 	1.5e+07
-2.975 	500 	1.8978e-12 	1.5e+07
-2.965 	500 	7.04912e-12 	1.5e+07
-2.955 	500 	9.76023e-12 	1.5e+07
-2.945 	500 	5.42237e-12 	1.5e+07
-2.935 	500 	4.7389e-34 	1.5e+07
-2.925 	500 	2.43968e-25 	1.5e+07
-2.915 	500 	7.04915e-12 	1.5e+07
-2.905 	500 	3.25347e-17 	1.5e+07
-2.895 	500 	4.60915e-12 	1.5e+07
-2.885 	500 	1.4098e-11 	1.5e+07
-2.875 	500 	1.46403e-11 	1.5e+07
-2.865 	500 	1.03024e-11 	1.5e+07
-2.855 	500 	8.67584e-12 	1.5e+07
-2.845 	500 	1.70834e-24 	1.5e+07
-2.835 	500 	2.71118e-12 	1.5e+07
-2.825 	500 	4.33797e-12 	1.5e+07
-2.815 	500 	1.43693e-11 	1.5e+07
-2.805 	500 	1.30136e-11 	1.5e+07
-2.795 	500 	2.93022e-24 	1.5e+07
-2.785 	500 	2.70484e-37 	1.5e+07
-2.775 	500 	6.50694e-12 	1.5e+07
-2.765 	500 	5.96469e-12 	1.5e+07
-2.755 	500 	7.04918e-12 	1.5e+07
-2.745 	500 	2.1945e-24 	1.5e+07
-2.735 	500 	2.71122e-12 	1.5e+07
-2.725 	500 	7.04918e-12 	1.5e+07
-2.715 	500 	6.77807e-12 	1.5e+07
-2.705 	500 	1.2207e-24 	1.5e+07
-2.695 	500 	4.8802e-12 	1.5e+07
-2.685 	500 	5.42245e-12 	1.5e+07
-2.675 	500 	1.08449e-12 	1.5e+07
-2.665 	500 	4.06684e-12 	1.5e+07
-2.655 	500 	7.04918e-12 	1.5e+07
-2.645 	500 	2.44028e-25 	1.5e+07
-2.635 	500 	0 	1.5e+07
-2.625 	500 	3.28075e-34 	1.5e+07
-2.615 	500 	2.16912e-12 	1.5e+07
-2.605 	500 	1.24714e-11 	1.5e+07
-2.595 	500 	6.50695e-12 	1.5e+07
-2.585 	500 	1.40982e-11 	1.5e+07
-2.575 	500 	6.23566e-12 	1.5e+07
-2.565 	500 	4.8802e-12 	1.5e+07
-2.555 	500 	1.62673e-12 	1.5e+07
-2.545 	500 	1.08449e-12 	1.5e+07
-2.535 	500 	5.42245e-13 	1.5e+07
-2.525 	500 	1.05736e-11 	1.5e+07
-2.515 	500 	6.77797e-12 	1.5e+07
-2.505 	500 	1.08449e-12 	1.5e+07
-2.495 	500 	1.62673e-12 	1.5e+07
-2.485 	500 	6.56151e-34 	1.5e+07
-2.475 	500 	0 	1.5e+07
-2.465 	500 	1.27586e-39 	1.5e+07
-2.455 	500 	3.25347e-12 	1.5e+07
-2.445 	500 	5.42246e-12 	1.5e+07
-2.435 	500 	8.40463e-12 	1.5e+07
-2.425 	500 	1.24713e-11 	1.5e+07
-2.415 	500 	1.08449e-12 	1.5e+07
-2.405 	500 	5.42245e-13 	1.5e+07
-2.395 	500 	3.17528e-24 	1.5e+07
-2.385 	500 	3.64531e-35 	1.5e+07
-2.375 	500 	7.29062e-35 	1.5e+07
-2.365 	500 	0 	1.5e+07
-2.355 	500 	1.26571e-71 	1.5e+07
-2.345 	500 	4.33796e-12 	1.5e+07
-2.335 	500 	3.79571e-12 	1.5e+07
-2.325 	500 	3.25347e-12 	1.5e+07
-2.315 	500 	2.71122e-12 	1.5e+07
-2.305 	500 	2.19827e-24 	1.5e+07
-2.295 	500 	7.31855e-25 	1.5e+07
-2.285 	500 	5.96469e-12 	1.5e+07
-2.275 	500 	6.50694e-12 	1.5e+07
-2.265 	500 	7.04918e-12 	1.5e+07
-2.255 	500 	7.32029e-12 	1.5e+07
-2.245 	500 	1.62671e-12 	1.5e+07
-2.235 	500 	1.62673e-12 	1.5e+07
-2.225 	500 	2.16898e-12 	1.5e+07
-2.215 	500 	8.38417e-34 	1.5e+07
-2.205 	500 	0 	1.5e+07
-2.195 	500 	2.55172e-34 	1.5e+07
-2.185 	500 	4.33796e-12 	1.5e+07
-2.175 	500 	9.76043e-12 	1.5e+07
-2.165 	500 	5.42245e-12 	1.5e+07
-2.155 	500 	4.88269e-25 	1.5e+07
-2.145 	500 	6.50694e-12 	1.5e+07
-2.135 	500 	-5.86953e-28 	1.5e+07
-2.125 	500 	7.32029e-12 	1.5e+07
-2.115 	500 	1.46403e-11 	1.5e+07
-2.105 	500 	8.94694e-12 	1.5e+07
-2.095 	500 	4.8802e-12 	1.5e+07
-2.085 	500 	1.22005e-11 	1.5e+07
-2.075 	500 	3.79571e-12 	1.5e+07
-2.065 	500 	1.70819e-24 	1.5e+07
-2.055 	500 	2.71122e-12 	1.5e+07
-2.045 	500 	2.16898e-12 	1.5e+07
-2.035 	500 	2.43869e-24 	1.5e+07
-2.025 	500 	1.08449e-12 	1.5e+07
-2.015 	500 	5.42245e-13 	1.5e+07
-2.005 	500 	7.04915e-12 	1.5e+07
-1.995 	500 	2.71122e-18 	1.5e+07
-1.985 	500 	3.61335e-11 	1.5e+07
-1.975 	500 	2.88325e-11 	1.5e+07
-1.965 	500 	9.76036e-12 	1.5e+07
-1.955 	500 	1.57249e-11 	1.5e+07
-1.945 	500 	3.52459e-17 	1.5e+07
-1.935 	500 	3.52459e-17 	1.5e+07
-1.925 	500 	2.92808e-11 	1.5e+07
-1.915 	500 	9.76043e-12 	1.5e+07
-1.905 	500 	1.35557e-11 	1.5e+07
-1.895 	500 	7.04912e-12 	1.5e+07
-1.885 	500 	6.77799e-12 	1.5e+07
-1.875 	500 	3.52449e-12 	1.5e+07
-1.865 	500 	7.32131e-23 	1.5e+07
-1.855 	500 	2.3316e-11 	1.5e+07
-1.845 	500 	7.04897e-12 	1.5e+07
-1.835 	500 	1.78936e-11 	1.5e+07
-1.825 	500 	1.83032e-11 	1.5e+07
-1.815 	500 	1.95202e-11 	1.5e+07
-1.805 	500 	3.25344e-12 	1.5e+07
-1.795 	500 	1.93493e-11 	1.5e+07
-1.785 	500 	2.09018e-11 	1.5e+07
-1.775 	500 	1.08448e-11 	1.5e+07
-1.765 	500 	5.42246e-18 	1.5e+07
-1.755 	500 	3.34533e-11 	1.5e+07
-1.745 	500 	4.27026e-11 	1.5e+07
-1.735 	500 	1.30137e-11 	1.5e+07
-1.725 	500 	1.5183e-11 	1.5e+07
-1.715 	500 	2.83104e-11 	1.5e+07
-1.705 	500 	1.38887e-11 	1.5e+07
-1.695 	500 	9.7601e-12 	1.5e+07
-1.685 	500 	2.54848e-11 	1.5e+07
-1.675 	500 	7.04897e-12 	1.5e+07
-1.665 	500 	1.76225e-11 	1.5e+07
-1.655 	500 	6.77812e-12 	1.5e+07
-1.645 	500 	4.88017e-12 	1.5e+07
-1.635 	500 	2.16895e-12 	1.5e+07
-1.625 	500 	6.50691e-12 	1.5e+07
-1.615 	500 	3.52459e-17 	1.5e+07
-1.605 	500 	3.52459e-17 	1.5e+07
-1.595 	500 	2.16903e-12 	1.5e+07
-1.585 	500 	1.62672e-12 	1.5e+07
-1.575 	500 	2.16896e-12 	1.5e+07
-1.565 	500 	1.40981e-11 	1.5e+07
-1.555 	500 	1.13871e-16 	1.5e+07
-1.545 	500 	6.50686e-12 	1.5e+07
-1.535 	500 	3.52459e-17 	1.5e+07
-1.525 	500 	6.56151e-34 	1.5e+07
-1.515 	500 	0 	1.5e+07
-1.505 	500 	1.46404e-11 	1.5e+07
-1.495 	500 	1.13871e-11 	1.5e+07
-1.485 	500 	9.02738e-25 	1.5e+07
-1.475 	500 	6.50687e-12 	1.5e+07
-1.465 	500 	1.49115e-11 	1.5e+07
-1.455 	500 	1.16582e-11 	1.5e+07
-1.445 	500 	4.33794e-12 	1.5e+07
-1.435 	500 	5.42244e-12 	1.5e+07
-1.425 	500 	6.50686e-12 	1.5e+07
-1.415 	500 	1.62669e-12 	1.5e+07
-1.405 	500 	3.52457e-12 	1.5e+07
-1.395 	500 	1.16581e-11 	1.5e+07
-1.385 	500 	3.03649e-11 	1.5e+07
-1.375 	500 	1.78933e-11 	1.5e+07
-1.365 	500 	1.5725e-11 	1.5e+07
-1.355 	500 	1.40984e-16 	1.5e+07
-1.345 	500 	6.50675e-12 	1.5e+07
-1.335 	500 	2.94594e-11 	1.5e+07
-1.325 	500 	4.25202e-11 	1.5e+07
-1.315 	500 	3.67991e-11 	1.5e+07
-1.305 	500 	3.475e-11 	1.5e+07
-1.295 	500 	9.21818e-12 	1.5e+07
-1.285 	500 	1.8978e-11 	1.5e+07
-1.275 	500 	2.98228e-11 	1.5e+07
-1.265 	500 	9.21804e-12 	1.5e+07
-1.255 	500 	8.13347e-12 	1.5e+07
-1.245 	500 	4.33793e-12 	1.5e+07
-1.235 	500 	6.50687e-12 	1.5e+07
-1.225 	500 	3.00818e-30 	1.5e+07
-1.215 	500 	2.71122e-18 	1.5e+07
-1.205 	500 	5.15139e-12 	1.5e+07
-1.195 	500 	1.14306e-11 	1.5e+07
-1.185 	500 	2.08192e-11 	1.5e+07
-1.175 	500 	8.67582e-12 	1.5e+07
-1.165 	500 	3.52459e-17 	1.5e+07
-1.155 	500 	2.55169e-34 	1.5e+07
-1.145 	500 	5.42246e-12 	1.5e+07
-1.135 	500 	2.22314e-11 	1.5e+07
-1.125 	500 	1.7014e-11 	1.5e+07
-1.115 	500 	8.13362e-12 	1.5e+07
-1.105 	500 	7.59129e-12 	1.5e+07
-1.095 	500 	1.40983e-11 	1.5e+07
-1.085 	500 	1.30137e-11 	1.5e+07
-1.075 	500 	3.52459e-17 	1.5e+07
-1.065 	500 	3.25357e-12 	1.5e+07
-1.055 	500 	4.33794e-12 	1.5e+07
-1.045 	500 	4.33791e-12 	1.5e+07
-1.035 	500 	1.30134e-11 	1.5e+07
-1.025 	500 	2.87383e-11 	1.5e+07
-1.015 	500 	2.7112e-12 	1.5e+07
-1.005 	500 	1.78938e-11 	1.5e+07
-0.995 	500 	1.22074e-11 	1.5e+07
-0.985 	500 	1.30138e-11 	1.5e+07
-0.975 	500 	7.59139e-12 	1.5e+07
-0.965 	500 	7.04911e-12 	1.5e+07
-0.955 	500 	5.42239e-13 	1.5e+07
-0.945 	500 	5.96461e-12 	1.5e+07
-0.935 	500 	1.62674e-12 	1.5e+07
-0.925 	500 	7.04908e-12 	1.5e+07
-0.915 	500 	5.42244e-12 	1.5e+07
-0.905 	500 	6.53241e-12 	1.5e+07
-0.895 	500 	6.71165e-11 	1.5e+07
-0.885 	500 	1.24525e-09 	1.5e+07
-0.875 	500 	7.33049e-09 	1.5e+07
-0.865 	500 	3.41399e-08 	1.5e+07
-0.855 	500 	1.46656e-07 	1.5e+07
-0.845 	500 	6.00432e-07 	1.5e+07
-0.835 	500 	2.35679e-06 	1.5e+07
-0.825 	500 	9.22911e-06 	1.5e+07
-0.815 	500 	3.46158e-05 	1.5e+07
-0.805 	500 	0.000124191 	1.5e+07
-0.795 	500 	0.000425556 	1.5e+07
-0.785 	500 	0.00139038 	1.49999e+07
-0.775 	499.999 	0.00432295 	1.49997e+07
-0.765 	499.997 	0.0127606 	1.49993e+07
-0.755 	499.99 	0.0356432 	1.49981e+07
-0.745 	499.975 	0.0935612 	1.4995e+07
-0.735 	499.938 	0.227156 	1.49879e+07
-0.725 	499.862 	0.507892 	1.4973e+07
-0.715 	499.715 	1.04611 	1.49444e+07
-0.705 	499.461 	1.98007 	1.48948e+07
-0.695 	499.061 	3.45255 	1.48168e+07
-0.685 	498.498 	5.52134 	1.4708e+07
-0.675 	497.78 	8.16285 	1.45703e+07
-0.665 	496.935 	11.2817 	1.44093e+07
-0.655 	495.995 	14.7562 	1.4232e+07
-0.645 	494.989 	18.478 	1.40445e+07
-0.635 	493.94 	22.3682 	1.38512e+07
-0.625 	492.862 	26.3746 	1.36546e+07
-0.615 	491.761 	30.4642 	1.34567e+07
-0.605 	490.646 	34.6158 	1.32586e+07
-0.595 	489.521 	38.815 	1.30608e+07
-0.585 	488.386 	43.0518 	1.28643e+07
-0.575 	487.245 	47.319 	1.2669e+07
-0.565 	486.099 	51.6115 	1.24754e+07
-0.555 	484.948 	55.9245 	1.22837e+07
-0.545 	483.795 	60.2549 	1.20939e+07
-0.535 	482.639 	64.6001 	1.19062e+07
-0.525 	481.481 	68.9581 	1.17206e+07
-0.515 	480.322 	73.3271 	1.15374e+07
-0.505 	479.162 	77.7058 	1.13562e+07
-0.495 	478.001 	82.093 	1.11775e+07
-0.485 	476.839 	86.4877 	1.1001e+07
-0.475 	475.677 	90.889 	1.08269e+07
-0.465 	474.515 	95.2964 	1.06551e+07
-0.455 	473.353 	99.7092 	1.04855e+07
-0.445 	472.191 	104.127 	1.03183e+07
-0.435 	471.03 	108.549 	1.01535e+07
-0.425 	469.869 	112.975 	9.99085e+06
-0.415 	468.709 	117.404 	9.83055e+06
-0.405 	467.55 	121.837 	9.6725e+06
-0.395 	466.391 	126.273 	9.5167e+06
-0.385 	465.232 	130.711 	9.36312e+06
-0.375 	464.075 	135.153 	9.21174e+06
-0.365 	462.919 	139.596 	9.06254e+06
-0.355 	461.762 	144.042 	8.91548e+06
-0.345 	460.6 	148.488 	8.7705e+06
-0.335 	459.423 	152.937 	8.62756e+06
-0.325 	458.226 	157.389 	8.4867e+06
-0.315 	457.052 	161.847 	8.34812e+06
-0.305 	455.99 	166.303 	8.21195e+06
-0.295 	454.911 	170.753 	8.07755e+06
-0.285 	453.696 	175.208 	7.9448e+06
-0.275 	452.526 	179.672 	7.81424e+06
-0.265 	451.452 	184.129 	7.68572e+06
-0.255 	450.24 	188.59 	7.55889e+06
-0.245 	449.139 	193.055 	7.43417e+06
-0.235 	447.988 	197.514 	7.31118e+06
-0.225 	446.825 	201.983 	7.19011e+06
-0.215 	445.735 	206.444 	7.07085e+06
-0.205 	444.527 	210.914 	6.95336e+06
-0.195 	443.477 	215.377 	6.83771e+06
-0.185 	442.248 	219.849 	6.72374e+06
-0.175 	441.199 	224.313 	6.61159e+06
-0.165 	440.007 	228.786 	6.50113e+06
-0.155 	438.9 	233.254 	6.39234e+06
-0.145 	437.793 	237.726 	6.28525e+06
-0.135 	436.593 	242.197 	6.17974e+06
-0.125 	435.576 	246.669 	6.0759e+06
-0.115 	434.335 	251.143 	5.97363e+06
-0.105 	433.286 	255.616 	5.87293e+06
-0.095 	432.173 	260.091 	5.7738e+06
-0.085 	430.951 	264.565 	5.67618e+06
-0.075 	429.973 	269.041 	5.58007e+06
-0.065 	428.771 	273.516 	5.48547e+06
-0.055 	427.605 	277.994 	5.39232e+06
-0.045 	426.636 	282.472 	5.30062e+06
-0.035 	425.418 	286.948 	5.2104e+06
-0.025 	424.26 	291.428 	5.12157e+06
-0.015 	423.296 	295.908 	5.03408e+06
-0.005 	422.114 	300.384 	4.94801e+06
0.005 	420.911 	304.866 	4.8633e+06
0.015 	419.94 	309.349 	4.77984e+06
0.025 	418.859 	313.826 	4.69773e+06
0.035 	417.604 	318.307 	4.61697e+06
0.045 	416.538 	322.794 	4.53742e+06
0.055 	415.592 	327.277 	4.45907e+06
0.065 	414.406 	331.754 	4.38206e+06
0.075 	413.168 	336.24 	4.30628e+06
0.085 	412.189 	340.731 	4.23162e+06
0.095 	411.213 	345.213 	4.15816e+06
0.105 	410.024 	349.692 	4.08594e+06
0.115 	408.805 	354.18 	4.01489e+06
0.125 	407.784 	358.674 	3.94489e+06
0.135 	406.854 	363.161 	3.87597e+06
0.145 	405.736 	367.64 	3.80822e+06
0.155 	404.473 	372.126 	3.74163e+06
0.165 	403.367 	376.624 	3.67603e+06
0.175 	402.461 	381.119 	3.6114e+06
0.185 	401.478 	385.601 	3.54785e+06
0.195 	400.277 	390.083 	3.48541e+06
0.205 	399.037 	394.575 	3.42399e+06
0.215 	397.977 	399.078 	3.36352e+06
0.225 	397.087 	403.577 	3.30394e+06
0.235 	396.129 	408.062 	3.24537e+06
0.245 	394.946 	412.542 	3.18784e+06
0.255 	393.697 	417.037 	3.13127e+06
0.265 	392.606 	421.543 	3.07553e+06
0.275 	391.659 	426.046 	3.02066e+06
0.285 	390.736 	430.541 	2.9667e+06
0.295 	389.739 	435.031 	2.91363e+06
0.305 	388.578 	439.514 	2.86148e+06
0.315 	387.299 	444.008 	2.81025e+06
0.325 	386.151 	448.522 	2.75981e+06
0.335 	385.269 	453.04 	2.71009e+06
0.345 	384.466 	457.54 	2.66115e+06
0.355 	383.471 	462.022 	2.61313e+06
0.365 	382.275 	466.508 	2.56599e+06
0.375 	381.042 	471.01 	2.51962e+06
0.385 	379.903 	475.522 	2.47395e+06
0.395 	378.887 	480.037 	2.429e+06
0.405 	377.958 	484.55 	2.3848e+06
0.415 	377.082 	489.059 	2.34132e+06
0.425 	376.181 	493.559 	2.29856e+06
0.435 	375.127 	498.046 	2.25655e+06
0.445 	373.879 	502.535 	2.21533e+06
0.455 	372.613 	507.047 	2.17484e+06
0.465 	371.522 	511.577 	2.13489e+06
0.475 	370.587 	516.102 	2.09557e+06
0.485 	369.707 	520.619 	2.05692e+06
0.495 	368.842 	525.134 	2.01898e+06
0.505 	367.978 	529.645 	1.98165e+06
0.515 	367.037 	534.142 	1.94492e+06
0.525 	365.871 	538.624 	1.90888e+06
0.535 	364.487 	543.117 	1.87359e+06
0.545 	363.181 	547.654 	1.8389e+06
0.555 	362.211 	552.217 	1.80461e+06
0.565 	361.49 	556.763 	1.77074e+06
0.575 	360.728 	561.271 	1.73751e+06
0.585 	359.763 	565.762 	1.70501e+06
0.595 	358.665 	570.272 	1.67318e+06
0.605 	357.674 	574.814 	1.64184e+06
0.615 	356.86 	579.36 	1.61088e+06
0.625 	356.017 	583.867 	1.58037e+06
0.635 	354.86 	588.337 	1.55052e+06
0.645 	353.381 	592.819 	1.52139e+06
0.655 	351.896 	597.356 	1.4928e+06
0.665 	350.776 	601.953 	1.46456e+06
0.675 	350.137 	606.565 	1.43657e+06
0.685 	349.733 	611.131 	1.40895e+06
0.695 	349.201 	615.633 	1.3819e+06
0.705 	348.311 	620.098 	1.35552e+06
0.715 	347.082 	624.577 	1.32978e+06
0.725 	345.785 	629.108 	1.30452e+06
0.735 	344.707 	633.686 	1.27956e+06
0.745 	343.873 	638.265 	1.25487e+06
0.755 	343.099 	642.808 	1.23053e+06
0.765 	342.127 	647.301 	1.20669e+06
0.775 	340.832 	651.781 	1.18344e+06
0.785 	339.36 	656.295 	1.1607e+06
0.795 	337.991 	660.865 	1.13833e+06
0.805 	336.94 	665.484 	1.11625e+06
0.815 	336.275 	670.121 	1.09443e+06
0.825 	335.9 	674.739 	1.0729e+06
0.835 	335.593 	679.305 	1.05173e+06
0.845 	335.095 	683.808 	1.03102e+06
0.855 	334.249 	688.278 	1.01085e+06
0.865 	333.084 	692.761 	991179
0.875 	331.791 	697.287 	971880
0.885 	330.567 	701.859 	952872
0.895 	329.531 	706.461 	934107
0.905 	328.674 	711.062 	915581
0.915 	327.877 	715.639 	897353
0.925 	327.011 	720.182 	879473
0.935 	325.977 	724.698 	861944
0.945 	324.707 	729.2 	844795
0.955 	323.237 	733.717 	828033
0.965 	321.731 	738.276 	811578
0.975 	320.357 	742.884 	795388
0.985 	319.254 	747.54 	779462
0.995 	318.567 	752.247 	763787
1.005 	318.292 	756.955 	748218
1.015 	318.273 	761.653 	733042
1.025 	318.39 	766.31 	718079
1.035 	318.46 	770.866 	703162
1.045 	318.201 	775.228 	688633
1.055 	317.044 	779.628 	675128
1.065 	315.54 	784.141 	661785
1.075 	314.243 	788.749 	648481
1.085 	313.152 	793.373 	635208
1.095 	312.055 	797.986 	622296
1.105 	311.104 	802.651 	609740
1.115 	310.576 	807.361 	597181
1.125 	310.186 	811.969 	584510
1.135 	309.274 	816.413 	572283
1.145 	307.653 	820.82 	560695
1.155 	305.777 	825.324 	549429
1.165 	304.093 	829.932 	538186
1.175 	302.655 	834.56 	526890
1.185 	301.122 	839.115 	515698
1.195 	299.185 	843.661 	505155
1.205 	297.421 	848.383 	494945
1.215 	296.914 	853.384 	485071
1.225 	297.39 	858.642 	474584
1.235 	298.609 	863.535 	463392
1.245 	299.666 	868.128 	453374
1.255 	299.608 	872.138 	442526
1.265 	297.976 	876.083 	434284
1.275 	295.287 	880.414 	425816
1.285 	292.734 	885.033 	417447
1.295 	291.484 	889.991 	409426
1.305 	291.966 	895.618 	401135
1.315 	293.764 	900.968 	391152
1.325 	295.401 	905.607 	381649
1.335 	296.08 	909.802 	373131
1.345 	295.609 	913.708 	365685
1.355 	294.233 	918.089 	359031
1.365 	293.878 	922.899 	351948
1.375 	294.096 	927.965 	344671
1.385 	295.376 	932.956 	336885
1.395 	296.007 	937.343 	327756
1.405 	294.371 	940.51 	320291
1.415 	287.43 	944.372 	315248
1.425 	281.437 	949.056 	309415
1.435 	277.427 	954.113 	302904
1.445 	276.625 	960.252 	298583
1.455 	280.454 	967.826 	291887
1.465 	285.221 	974.001 	281813
1.475 	288.232 	978.934 	274165
1.485 	290.837 	983.01 	267267
1.495 	292.194 	986.667 	260767
1.505 	291.063 	988.934 	253831
1.515 	282.369 	991.769 	250389
1.525 	270.329 	995.596 	246015
1.535 	260.271 	1000.2 	241348
1.545 	253.271 	1005.46 	236302
1.555 	251.449 	1012.04 	232821
1.565 	257.635 	1020.98 	229119
1.575 	267.695 	1029.11 	219172
1.585 	274.282 	1035.08 	212094
1.595 	278.816 	1039.41 	204834
1.605 	281.342 	1042.44 	199270
1.615 	280.467 	1044.23 	194444
1.625 	273.364 	1047.04 	192773
1.635 	268.949 	1051.6 	189747
1.645 	267.808 	1056.3 	184199
1.655 	263.868 	1060.09 	179363
1.665 	254.246 	1063.91 	175616
1.675 	243.187 	1068.4 	172233
1.685 	235.408 	1073.84 	168635
1.695 	233.286 	1080.63 	165225
1.705 	235.232 	1088.7 	160403
1.715 	244.623 	1095.66 	154237
1.725 	258.311 	1103.58 	153495
1.735 	266.473 	1111.22 	150624
1.745 	269.307 	1113.9 	140337
1.755 	274.36 	1110.99 	131138
1.765 	283.335 	1111.46 	131089
1.775 	286.457 	1115.21 	131056
1.785 	284.159 	1120.75 	130959
1.795 	267.804 	1127.44 	130779
1.805 	261.167 	1134.81 	130197
1.815 	259.432 	1141.97 	128285
1.825 	252.323 	1148.09 	125216
1.835 	246.078 	1153.09 	120607
1.845 	241.249 	1156.77 	115645
1.855 	236.968 	1160.41 	111918
1.865 	236.053 	1165.42 	109376
1.875 	237.407 	1171.45 	105553
1.885 	238.838 	1176.97 	102047
1.895 	238.807 	1181.67 	98634.4
1.905 	236.782 	1186.2 	96658.1
1.915 	234.218 	1191.36 	94851
1.925 	236.279 	1198.5 	94085.8
1.935 	251.054 	1206.97 	91612.8
1.945 	256.927 	1213.09 	87782.9
1.955 	258.192 	1217.29 	85440.1
1.965 	263.018 	1221.84 	84156.9
1.975 	270.446 	1227.27 	82442.9
1.985 	275.741 	1231.9 	79878.2
1.995 	277.371 	1233.58 	75231.4
2.005 	280.786 	1231.93 	71083.8
2.015 	295.913 	1232.48 	70724.1
2.025 	309.408 	1236.05 	70740.2
2.035 	312.889 	1241.05 	70728.2
2.045 	308.218 	1246.76 	70636.3
2.055 	272.292 	1252.99 	70528.2
2.065 	245.716 	1259.7 	70092.9
2.075 	232.8 	1266.46 	68452.9
2.085 	225.271 	1272.43 	65850.9
2.095 	220.051 	1277.93 	63465.7
2.105 	217.835 	1283.97 	61903
2.115 	222.931 	1292.41 	61489.2
2.125 	249.674 	1303.21 	60131.2
2.135 	264.824 	1312.53 	57158.1
2.145 	267.056 	1318.58 	55559.4
2.155 	264.985 	1322.96 	54653.9
2.165 	258.042 	1326.2 	53202.2
2.175 	248.788 	1328.34 	51763.6
2.185 	244.441 	1331.28 	50712
2.195 	250.209 	1337.1 	49225.4
2.205 	263.333 	1341.82 	45611.5
2.215 	270.685 	1345.5 	44649.4
2.225 	272.743 	1350.71 	44336
2.235 	275.608 	1357.4 	44099.4
2.245 	284.452 	1364.74 	43357.3
2.255 	290.982 	1369.21 	40936.5
2.265 	301.089 	1370.75 	39578.8
2.275 	309.115 	1374.75 	39562.1
2.285 	312.796 	1380.55 	39527.2
2.295 	323.672 	1387.39 	39479.1
2.305 	337.198 	1394.89 	39363.8
2.315 	345.065 	1402.29 	38994.6
2.325 	346.07 	1407.89 	37822.9
2.335 	342.868 	1409.98 	35678.5
2.345 	338.914 	1408.2 	33377.3
2.355 	321.154 	1405.77 	32389.6
2.365 	278.587 	1407.05 	32249.1
2.375 	248.474 	1411.28 	32037.9
2.385 	235.446 	1417.27 	31798.6
2.395 	232.914 	1424.61 	31550
2.405 	235.685 	1432.95 	31189.8
2.415 	249.146 	1441.58 	30708.6
2.425 	261.295 	1451.04 	30674.3
2.435 	269.416 	1460.37 	30456.9
2.445 	273.252 	1467.98 	29464.2
2.455 	272.685 	1470.86 	26849.3
2.465 	273.361 	1469.14 	24461.3
2.475 	284.868 	1468.67 	23886.4
2.485 	299.033 	1472.33 	23896.2
2.495 	306.439 	1478.46 	23911.9
2.505 	309.099 	1485.79 	23921.3
2.515 	309.412 	1493.68 	23922.9
2.525 	308.737 	1501.88 	23917.8
2.535 	308.522 	1510.32 	23913.2
2.545 	309.559 	1518.96 	23893.6
2.555 	320.248 	1527.78 	23877.8
2.565 	331.644 	1536.66 	23796.9
2.575 	336.528 	1544.89 	23636.4
2.585 	335.824 	1551.28 	23091.2
2.595 	328.845 	1554.2 	21794.1
2.605 	325.826 	1554.06 	20378.9
2.615 	324.701 	1551.4 	18732
2.625 	333.493 	1549.57 	18066.1
2.635 	348.863 	1552.33 	18068
2.645 	359.984 	1557.93 	18078.3
2.655 	367.083 	1564.92 	18077.2
2.665 	370.109 	1572.65 	18075.5
2.675 	375.095 	1580.83 	18066
2.685 	386.312 	1589.36 	18059
2.695 	398.354 	1598.18 	18026.9
2.705 	407.408 	1607.1 	18007.7
2.715 	415.257 	1615.77 	17919.1
2.725 	421.934 	1623.16 	17634.5
2.735 	423.616 	1625.99 	16603.7
2.745 	420.927 	1621.98 	15173
2.755 	423.573 	1618.43 	14736.2
2.765 	423.134 	1619.49 	14734.4
2.775 	391.564 	1622.98 	14738.9
2.785 	330.174 	1627.26 	14735.4
2.795 	285.024 	1632.04 	14717.4
2.805 	260.529 	1637.58 	14683.3
2.815 	256.037 	1644.41 	14643.8
2.825 	261.747 	1652.47 	14484.1
2.835 	272.511 	1659.96 	13847.1
2.845 	275.412 	1662.16 	12239.6
2.855 	291.832 	1662.84 	11779.4
2.865 	314.201 	1667.18 	11785.5
2.875 	331.064 	1673.96 	11818.8
2.885 	345.46 	1682.16 	11871.7
2.895 	357.794 	1691.04 	11909.2
2.905 	367.861 	1700.08 	11909.2
2.915 	375.577 	1709.13 	11906.9
2.925 	382.859 	1718.09 	11897.6
2.935 	390.693 	1726.93 	11882.3
2.945 	396.898 	1735.68 	11869.3
2.955 	401.973 	1744.28 	11851.6
2.965 	404.841 	1752.16 	11747.7
2.975 	403.277 	1758.04 	11456.9
2.985 	394.968 	1760.23 	10784.5
2.995 	391.294 	1759.04 	10062.6
3.005 	388.374 	1754.09 	9143.11
3.015 	396.709 	1749.57 	8759.88
3.025 	411.31 	1750.52 	8761.08
3.035 	424.22 	1755.07 	8773
3.045 	439.374 	1761.5 	8804.29
3.055 	453.617 	1768.93 	8819.34
3.065 	462.188 	1776.68 	8819.05
3.075 	469.088 	1784.48 	8817.9
3.085 	481.774 	1792.19 	8820.51
3.095 	499.493 	1799.78 	8817.46
3.105 	514.396 	1807.21 	8819.82
3.115 	521.177 	1814.34 	8817.19
3.125 	522 	1821.1 	8804.27
3.135 	514.44 	1827.66 	8800.61
3.145 	453.075 	1834.05 	8800.7
3.155 	381.836 	1840.06 	8789.15
3.165 	345.65 	1846.22 	8767.07
3.175 	335.629 	1853.23 	8746.45
3.185 	336.441 	1861.37 	8681.96
3.195 	345.099 	1869.98 	8504.35
3.205 	347.083 	1875.88 	7897.4
3.215 	345.533 	1875.87 	7087.23
3.225 	345.998 	1872.39 	6422.31
3.235 	364.219 	1870.93 	6271.26
3.245 	386.256 	1874.13 	6276.8
3.255 	403.467 	1880.15 	6299.29
3.265 	417.986 	1887.79 	6338.52
3.275 	429.687 	1896.05 	6347.97
3.285 	438.883 	1904.37 	6347.81
3.295 	445.445 	1912.61 	6346.87
3.305 	449.377 	1920.64 	6342.86
3.315 	451.1 	1928.43 	6339.9
3.325 	451.733 	1936.02 	6329.82
3.335 	454.042 	1943.48 	6314.21
3.345 	459.786 	1950.76 	6282.71
3.355 	463.926 	1957.02 	6179.33
3.365 	462.557 	1959.56 	5802.4
3.375 	460.135 	1957.56 	5364.67
3.385 	470.2 	1957.28 	5259.5
3.395 	484.894 	1960.99 	5259.49
3.405 	497.179 	1966.74 	5260.61
3.415 	509.964 	1973.36 	5260.59
3.425 	521.179 	1980.38 	5260.11
3.435 	527.782 	1987.56 	5257.64
3.445 	531.782 	1994.72 	5256.8
3.455 	537.141 	2001.76 	5251.15
3.465 	543.223 	2008.56 	5241.49
3.475 	547.174 	2014.97 	5227.54
3.485 	549.39 	2020.71 	5177.82
3.495 	551.016 	2024.59 	5025.32
3.505 	552.72 	2024.3 	4656.2
3.515 	573.226 	2024.74 	4580.61
3.525 	592.837 	2028.67 	4581.73
3.535 	600.326 	2034.13 	4582.14
3.545 	601.223 	2040.09 	4581.76
3.555 	592.239 	2046.33 	4580.65
3.565 	516.694 	2052.6 	4582.07
3.575 	431.386 	2058.45 	4579.33
3.585 	384.783 	2064.25 	4569.16
3.595 	367.11 	2070.51 	4566.59
3.605 	363.925 	2077.65 	4554.9
3.615 	368.04 	2085.8 	4542.24
3.625 	382.426 	2094.7 	4496.86
3.635 	390.46 	2103.01 	4363.06
3.645 	389.198 	2107.48 	4036.13
3.655 	386.336 	2107.23 	3683.94
3.665 	388.965 	2105.17 	3434.14
3.675 	410.187 	2106.42 	3406.74
3.685 	433.82 	2111.43 	3410.03
3.695 	455.258 	2118.46 	3420.78
3.705 	475.403 	2126.81 	3445.07
3.715 	491.43 	2135.68 	3448.82
3.725 	503.879 	2144.51 	3448.5
3.735 	512.891 	2153.21 	3446.98
3.745 	518.861 	2161.72 	3443.88
3.755 	522.604 	2170.05 	3441.24
3.765 	525.346 	2178.25 	3439.08
3.775 	528.355 	2186.39 	3431.11
3.785 	531.703 	2194.31 	3401.69
3.795 	532.383 	2200.58 	3302.95
3.805 	526.834 	2202.46 	3093.59
3.815 	521.804 	2199.63 	2853.65
3.825 	528.294 	2196.32 	2729.36
3.835 	548.091 	2197.95 	2729.27
3.845 	560.143 	2202.96 	2730.8
3.855 	565.827 	2209.46 	2734.39
3.865 	568.974 	2216.42 	2734.21
3.875 	571.871 	2223.43 	2735.49
3.885 	575.283 	2230.36 	2735.81
3.895 	579.156 	2237.17 	2733.89
3.905 	582.959 	2243.88 	2734.24
3.915 	586.27 	2250.52 	2732.19
3.925 	590.184 	2257.14 	2729.73
3.935 	596.615 	2263.79 	2725.96
3.945 	606.367 	2270.51 	2721.26
3.955 	617.286 	2277.27 	2714.66
3.965 	625.984 	2283.78 	2691.15
3.975 	630.657 	2288.9 	2632.06
3.985 	628.631 	2288.7 	2431.96
3.995 	629.264 	2285.3 	2299.57
4.005 	648.324 	2286.28 	2290.79
4.015 	666.65 	2290.92 	2291.24
4.025 	678.388 	2297.16 	2292.4
4.035 	683 	2304.06 	2293.22
4.045 	687.656 	2311.19 	2292.94
4.055 	700.308 	2318.49 	2293.51
4.065 	716.603 	2325.96 	2295.17
4.075 	727.606 	2333.58 	2294.62
4.085 	733.63 	2341.18 	2293.63
4.095 	746.075 	2348.67 	2296.17
4.105 	771.265 	2355.95 	2294.93
4.115 	799.519 	2362.92 	2291.41
4.125 	816.7 	2369.47 	2291.97
4.135 	820.73 	2375.39 	2290.56
4.145 	815.002 	2380.78 	2287.99
4.155 	729.524 	2385.77 	2288.32
4.165 	600.31 	2390.17 	2285.06
4.175 	514.795 	2394.36 	2282.9
4.185 	456.88 	2398.78 	2275.59
4.195 	425.729 	2403.74 	2260.09
4.205 	414.722 	2409.18 	2221.06
4.215 	409.962 	2413.82 	2115.34
4.225 	407.09 	2416.05 	1954.23
4.235 	407.397 	2417.02 	1828.12
4.245 	411.05 	2416.98 	1723.79
4.255 	432.841 	2418.93 	1707.75
4.265 	459.353 	2423.87 	1708.72
4.275 	483.638 	2430.7 	1710.2
4.285 	504.269 	2438.65 	1709.87
4.295 	523.094 	2447.3 	1710.54
4.305 	543.879 	2456.39 	1710.34
4.315 	568.211 	2465.83 	1710.15
4.325 	592.767 	2475.58 	1708.72
4.335 	613.799 	2485.53 	1708.54
4.345 	630.839 	2495.54 	1706.12
4.355 	645.158 	2505.45 	1704.23
4.365 	657.005 	2515.14 	1701.57
4.375 	665.994 	2524.49 	1697.61
4.385 	672.645 	2533.34 	1695.37
4.395 	676.068 	2541.37 	1680.71
4.405 	675.677 	2547.54 	1647.53
4.415 	662.656 	2548.79 	1540.98
4.425 	646.706 	2544.26 	1412.72
4.435 	643.574 	2538.41 	1333.67
4.445 	653.07 	2536.86 	1321.77
4.455 	661.133 	2539.65 	1321.84
4.465 	664.16 	2544.57 	1321.75
4.475 	665.034 	2550.49 	1321.71
4.485 	665.588 	2556.91 	1321.6
4.495 	668.504 	2563.58 	1321.3
4.505 	676.851 	2570.46 	1320.64
4.515 	684.852 	2577.52 	1319.79
4.525 	692.664 	2584.7 	1318.52
4.535 	701.306 	2591.94 	1316.14
4.545 	711.129 	2599.22 	1314.28
4.555 	720.862 	2606.45 	1310.42
4.565 	729.814 	2613.59 	1308.72
4.575 	736.818 	2620.43 	1300.78
4.585 	741.103 	2626.34 	1282.05
4.595 	739.381 	2629.27 	1221.93
4.605 	737.306 	2629.43 	1161.46
4.615 	747.748 	2632.11 	1153.19
4.625 	753.759 	2637.3 	1153.21
4.635 	755.398 	2643.35 	1153.45
4.645 	757.185 	2649.61 	1153.57
4.655 	764.425 	2655.9 	1153.21
4.665 	776.536 	2662.23 	1153.08
4.675 	790.616 	2668.62 	1152.87
4.685 	804.275 	2675.05 	1150.94
4.695 	816.455 	2681.55 	1150.38
4.705 	826.504 	2688.14 	1148.27
4.715 	837.304 	2694.82 	1146.8
4.725 	851.966 	2701.55 	1143.28
4.735 	867.673 	2708.17 	1139.58
4.745 	876.86 	2714.14 	1127.77
4.755 	877.49 	2717.84 	1100.91
4.765 	862.562 	2715.59 	1017.85
4.775 	860.283 	2710.62 	962.831
4.785 	882.599 	2710.66 	957.658
4.795 	899.226 	2715 	957.845
4.805 	904.927 	2721.1 	958.135
4.815 	909.816 	2727.77 	958.538
4.825 	923.436 	2734.56 	958.697
4.835 	949.453 	2741.34 	958.351
4.845 	985.038 	2748.13 	959.027
4.855 	1021.63 	2754.95 	958.751
4.865 	1050.61 	2761.76 	958.241
4.875 	1067.76 	2768.55 	958.139
4.885 	1074.08 	2775.27 	957.959
4.895 	1074.54 	2781.96 	956.867
4.905 	1066.54 	2788.71 	955.938
4.915 	954.81 	2795.43 	956.412
4.925 	765.539 	2801.47 	955.308
4.935 	626.306 	2806.9 	954.308
4.945 	537.065 	2812.08 	953.481
4.955 	486.528 	2817.36 	950.868
4.965 	462.796 	2823.06 	948.992
4.975 	455.202 	2829.42 	948.261
4.985 	454.587 	2836.59 	944.707
4.995 	463.711 	2844.61 	942.763
